S1,S2,S3,S4,S5,S6,S7,S8,S9,S10,S11,S12,S13,S14,S15,S16,S17,S18,S19,S20,S21,S22,S23,S24,S25,S26,S27,S28,S29,S30,S31,S32,S33,S34,S35,S36,S37,S38,S39,S40,S41,S42,S43,S44,S45,S46,S47,S48,S49,S50,S51,S52,S53,S54,S55,,,,,,,,,,,,,,,,,,,,,,,,,,,,,,,,,,,,,,,,,,,,,,,,,,,,,,
-2.51E-08,1.35E-07,3.49E-08,-1.32E-07,-2.97E-08,-3.72E-08,-8.21E-08,1.64E-08,1.36E-08,-1.80E-08,-5.70E-08,2.51E-07,-2.54E-08,-1.55E-08,-1.56E-07,-3.20E-08,1.08E-07,5.54E-08,-9.76E-08,-4.38E-08,3.75E-08,2.65E-07,-9.79E-09,-1.29E-07,-2.96E-07,1.58E-07,-1.26E-07,-1.83E-08,3.62E-08,-1.11E-07,8.28E-08,-1.63E-07,-1.85E-07,-2.54E-08,5.12E-10,3.48E-08,4.14E-08,-7.95E-08,-1.63E-07,-5.45E-08,1.23E-07,1.90E-08,-9.83E-08,-1.65E-09,-3.58E-08,-2.84E-07,-6.81E-08,2.82E-08,-1.08E-07,4.41E-10,9.09E-08,8.29E-08,-3.99E-07,3.05E-09,1.90E-09,,,,,,,,,,,,,,,,,,,,,,,,,,,,,,,,,,,,,,,,,,,,,,,,,,,,,,
-2.13E-07,1.21E-06,3.14E-07,-1.17E-06,-2.65E-07,-3.33E-07,-7.30E-07,1.50E-07,1.20E-07,-1.60E-07,-5.23E-07,2.24E-06,-2.26E-07,-1.35E-07,-1.39E-06,-2.87E-07,9.92E-07,4.99E-07,-8.70E-07,-3.87E-07,3.38E-07,2.37E-06,-1.02E-07,-1.14E-06,-2.64E-06,1.40E-06,-1.14E-06,-1.77E-07,3.27E-07,-9.86E-07,7.47E-07,-1.46E-06,-1.65E-06,-2.23E-07,1.63E-09,3.12E-07,3.70E-07,-7.03E-07,-1.45E-06,-4.97E-07,1.11E-06,1.69E-07,-8.80E-07,-1.70E-08,-3.24E-07,-2.55E-06,-6.18E-07,2.51E-07,-9.72E-07,2.57E-08,8.15E-07,7.45E-07,-3.54E-06,2.94E-08,1.68E-08,,,,,,,,,,,,,,,,,,,,,,,,,,,,,,,,,,,,,,,,,,,,,,,,,,,,,,
-8.54E-07,5.22E-06,1.36E-06,-5.02E-06,-1.14E-06,-1.44E-06,-3.12E-06,6.73E-07,5.11E-07,-6.84E-07,-2.33E-06,9.65E-06,-9.71E-07,-5.67E-07,-6.00E-06,-1.24E-06,4.42E-06,2.18E-06,-3.74E-06,-1.64E-06,1.48E-06,1.02E-05,-5.25E-07,-4.91E-06,-1.14E-05,5.90E-06,-4.98E-06,-8.43E-07,1.43E-06,-4.23E-06,3.26E-06,-6.29E-06,-7.08E-06,-9.38E-07,-8.67E-09,1.35E-06,1.59E-06,-2.99E-06,-6.23E-06,-2.20E-06,4.82E-06,7.21E-07,-3.80E-06,-8.64E-08,-1.41E-06,-1.10E-05,-2.72E-06,1.08E-06,-4.23E-06,2.31E-07,3.53E-06,3.24E-06,-1.51E-05,1.39E-07,7.09E-08,,,,,,,,,,,,,,,,,,,,,,,,,,,,,,,,,,,,,,,,,,,,,,,,,,,,,,
-2.16E-06,1.48E-05,3.87E-06,-1.39E-05,-3.20E-06,-4.04E-06,-8.66E-06,1.98E-06,1.42E-06,-1.91E-06,-6.83E-06,2.71E-05,-2.71E-06,-1.54E-06,-1.68E-05,-3.50E-06,1.30E-05,6.22E-06,-1.05E-05,-4.52E-06,4.22E-06,2.85E-05,-1.78E-06,-1.37E-05,-3.19E-05,1.62E-05,-1.43E-05,-2.66E-06,4.10E-06,-1.18E-05,9.31E-06,-1.77E-05,-1.98E-05,-2.55E-06,-7.79E-08,3.82E-06,4.46E-06,-8.28E-06,-1.74E-05,-6.40E-06,1.37E-05,1.99E-06,-1.07E-05,-2.90E-07,-4.04E-06,-3.13E-05,-7.83E-06,3.01E-06,-1.20E-05,1.08E-06,9.97E-06,9.19E-06,-4.21E-05,4.37E-07,1.94E-07,,,,,,,,,,,,,,,,,,,,,,,,,,,,,,,,,,,,,,,,,,,,,,,,,,,,,,
-3.88E-06,3.11E-05,8.18E-06,-2.87E-05,-6.66E-06,-8.50E-06,-1.78E-05,4.41E-06,2.97E-06,-3.97E-06,-1.50E-05,5.66E-05,-5.58E-06,-3.09E-06,-3.51E-05,-7.33E-06,2.85E-05,1.33E-05,-2.17E-05,-9.25E-06,9.02E-06,5.93E-05,-4.55E-06,-2.85E-05,-6.66E-05,3.27E-05,-3.06E-05,-6.33E-06,8.74E-06,-2.45E-05,1.99E-05,-3.70E-05,-4.12E-05,-5.14E-06,-2.95E-07,8.08E-06,9.28E-06,-1.70E-05,-3.60E-05,-1.40E-05,2.91E-05,4.01E-06,-2.25E-05,-7.35E-07,-8.62E-06,-6.59E-05,-1.69E-05,6.29E-06,-2.56E-05,3.39E-06,2.10E-05,1.94E-05,-8.69E-05,1.04E-06,3.92E-07,,,,,,,,,,,,,,,,,,,,,,,,,,,,,,,,,,,,,,,,,,,,,,,,,,,,,,
-5.16E-06,5.28E-05,1.40E-05,-4.73E-05,-1.11E-05,-1.44E-05,-2.91E-05,8.02E-06,5.06E-06,-6.68E-06,-2.68E-05,9.50E-05,-9.16E-06,-4.96E-06,-5.88E-05,-1.23E-05,5.08E-05,2.30E-05,-3.63E-05,-1.52E-05,1.55E-05,9.91E-05,-9.41E-06,-4.77E-05,-0.000111283,5.27E-05,-5.31E-05,-1.23E-05,1.50E-05,-4.09E-05,3.42E-05,-6.23E-05,-6.87E-05,-8.22E-06,-7.51E-07,1.38E-05,1.55E-05,-2.78E-05,-5.97E-05,-2.47E-05,5.00E-05,6.37E-06,-3.80E-05,-1.51E-06,-1.48E-05,-0.000111992,-2.96E-05,1.06E-05,-4.41E-05,8.08E-06,3.58E-05,3.31E-05,-0.000143649,2.04E-06,6.22E-07,,,,,,,,,,,,,,,,,,,,,,,,,,,,,,,,,,,,,,,,,,,,,,,,,,,,,,
-4.89E-06,7.62E-05,2.02E-05,-6.53E-05,-1.57E-05,-2.08E-05,-3.97E-05,1.26E-05,7.48E-06,-9.59E-06,-4.10E-05,0.000134581,-1.25E-05,-6.70E-06,-8.33E-05,-1.74E-05,7.73E-05,3.39E-05,-5.11E-05,-2.10E-05,2.28E-05,0.000139341,-1.65E-05,-6.74E-05,-0.000156649,7.06E-05,-7.84E-05,-2.06E-05,2.18E-05,-5.75E-05,5.00E-05,-8.85E-05,-9.67E-05,-1.10E-05,-1.47E-06,2.00E-05,2.16E-05,-3.81E-05,-8.34E-05,-3.72E-05,7.26E-05,8.19E-06,-5.45E-05,-2.67E-06,-2.16E-05,-0.000161024,-4.43E-05,1.53E-05,-6.45E-05,1.57E-05,5.17E-05,4.79E-05,-0.00019996,3.43E-06,8.00E-07,,,,,,,,,,,,,,,,,,,,,,,,,,,,,,,,,,,,,,,,,,,,,,,,,,,,,,
-2.26E-06,9.65E-05,2.57E-05,-7.80E-05,-1.93E-05,-2.64E-05,-4.62E-05,1.77E-05,1.01E-05,-1.22E-05,-5.55E-05,0.000166627,-1.47E-05,-7.91E-06,-1.03E-04,-2.12E-05,0.00010391,4.41E-05,-6.28E-05,-2.54E-05,2.93E-05,0.000170629,-2.53E-05,-8.35E-05,-0.000191776,8.07E-05,-0.00010239,-3.05E-05,2.76E-05,-7.07E-05,6.44E-05,-0.000110117,-1.19E-04,-1.26E-05,-2.36E-06,2.57E-05,2.61E-05,-4.54E-05,-1.01E-04,-4.97E-05,9.26E-05,8.50E-06,-6.86E-05,-4.15E-06,-2.76E-05,-0.000202815,-5.86E-05,1.95E-05,-8.34E-05,2.59E-05,6.58E-05,6.08E-05,-0.000242167,5.14E-06,8.21E-07,,,,,,,,,,,,,,,,,,,,,,,,,,,,,,,,,,,,,,,,,,,,,,,,,,,,,,
2.80E-06,0.000110428,2.95E-05,-8.20E-05,-2.12E-05,-3.05E-05,-4.64E-05,2.29E-05,1.29E-05,-1.44E-05,-6.82E-05,0.00018461,-1.49E-05,-8.40E-06,-1.14E-04,-2.29E-05,0.000126612,5.20E-05,-6.86E-05,-2.77E-05,3.40E-05,0.000185959,-3.47E-05,-9.29E-05,-0.000208622,7.97E-05,-0.000121387,-4.12E-05,3.11E-05,-7.79E-05,7.48E-05,-0.000122733,-1.30E-04,-1.28E-05,-3.23E-06,3.00E-05,2.78E-05,-4.78E-05,-1.09E-04,-6.01E-05,1.06E-04,6.54E-06,-7.77E-05,-5.87E-06,-3.16E-05,-0.00022929,-7.04E-05,2.27E-05,-9.80E-05,3.79E-05,7.58E-05,6.94E-05,-0.000261098,7.01E-06,5.84E-07,,,,,,,,,,,,,,,,,,,,,,,,,,,,,,,,,,,,,,,,,,,,,,,,,,,,,,
9.54E-06,0.000116711,3.13E-05,-7.63E-05,-2.12E-05,-3.28E-05,-3.93E-05,2.80E-05,1.61E-05,-1.59E-05,-7.78E-05,0.000186483,-1.29E-05,-8.27E-06,-1.15E-04,-2.18E-05,0.000142497,5.67E-05,-6.77E-05,-2.78E-05,3.64E-05,1.83E-04,-4.33E-05,-9.50E-05,-2.05E-04,6.71E-05,-0.00013367,-5.16E-05,3.16E-05,-7.85E-05,8.01E-05,-0.000124991,-1.29E-04,-1.17E-05,-3.82E-06,3.26E-05,2.61E-05,-4.51E-05,-1.06E-04,-6.75E-05,1.12E-04,2.02E-06,-8.09E-05,-7.66E-06,-3.30E-05,-0.00023708,-7.85E-05,2.49E-05,-0.000106987,5.02E-05,8.10E-05,7.27E-05,-0.000255,8.88E-06,1.57E-08,,,,,,,,,,,,,,,,,,,,,,,,,,,,,,,,,,,,,,,,,,,,,,,,,,,,,,
1.67E-05,0.0001164,3.13E-05,-6.26E-05,-1.98E-05,-3.34E-05,-2.61E-05,3.27E-05,2.00E-05,-1.72E-05,-8.37E-05,0.000174702,-9.12E-06,-7.79E-06,-1.08E-04,-1.82E-05,0.000150492,5.81E-05,-6.07E-05,-2.64E-05,3.64E-05,1.65E-04,-4.94E-05,-9.11E-05,-1.83E-04,4.57E-05,-0.000139566,-6.07E-05,2.92E-05,-7.38E-05,8.05E-05,-1.18E-04,-1.18E-04,-9.92E-06,-3.89E-06,3.38E-05,2.15E-05,-3.86E-05,-9.43E-05,-7.14E-05,1.10E-04,-4.77E-06,-7.91E-05,-9.39E-06,-3.19E-05,-0.000227892,-8.27E-05,2.61E-05,-0.000110903,6.13E-05,8.18E-05,7.13E-05,-0.000229141,1.06E-05,-9.11E-07,,,,,,,,,,,,,,,,,,,,,,,,,,,,,,,,,,,,,,,,,,,,,,,,,,,,,,
2.27E-05,0.00011207,3.05E-05,-4.40E-05,-1.77E-05,-3.31E-05,-8.79E-06,3.70E-05,2.47E-05,-1.85E-05,-8.60E-05,0.000154692,-4.31E-06,-7.26E-06,-9.53E-05,-1.27E-05,0.000151255,5.65E-05,-4.93E-05,-2.45E-05,3.48E-05,1.38E-04,-5.19E-05,-8.38E-05,-1.50E-04,1.97E-05,-0.00014093,-6.80E-05,2.45E-05,-6.66E-05,7.75E-05,-0.000106408,-1.01E-04,-8.30E-06,-3.27E-06,3.42E-05,1.50E-05,-3.04E-05,-7.77E-05,-7.24E-05,1.02E-04,-1.31E-05,-7.41E-05,-1.09E-05,-2.88E-05,-0.000207077,-8.36E-05,2.69E-05,-0.000111407,7.02E-05,8.00E-05,6.65E-05,-0.000192931,1.22E-05,-2.17E-06,,,,,,,,,,,,,,,,,,,,,,,,,,,,,,,,,,,,,,,,,,,,,,,,,,,,,,
2.66E-05,0.000106701,2.96E-05,-2.39E-05,-1.57E-05,-3.24E-05,1.01E-05,4.09E-05,3.03E-05,-1.99E-05,-8.55E-05,0.00013265,7.07E-07,-6.89E-06,-8.11E-05,-6.27E-06,0.000146613,5.27E-05,-3.58E-05,-2.27E-05,3.23E-05,1.07E-04,-5.00E-05,-7.59E-05,-1.14E-04,-6.79E-06,-0.000140215,-7.34E-05,1.86E-05,-5.95E-05,7.29E-05,-9.30E-05,-8.35E-05,-7.57E-06,-1.89E-06,3.45E-05,7.67E-06,-2.26E-05,-6.06E-05,-7.16E-05,9.20E-05,-2.21E-05,-6.82E-05,-1.23E-05,-2.45E-05,-0.000181336,-8.23E-05,2.76E-05,-0.00011046,7.66E-05,7.73E-05,6.03E-05,-0.000156225,1.35E-05,-3.67E-06,,,,,,,,,,,,,,,,,,,,,,,,,,,,,,,,,,,,,,,,,,,,,,,,,,,,,,
2.78E-05,0.00010269,2.95E-05,-5.06E-06,-1.47E-05,-3.18E-05,2.84E-05,4.45E-05,3.64E-05,-2.16E-05,-8.31E-05,0.000113609,5.27E-06,-6.70E-06,-6.82E-05,3.78E-07,0.000138836,4.71E-05,-2.17E-05,-2.17E-05,2.96E-05,7.98E-05,-4.37E-05,-6.93E-05,-8.11E-05,-3.06E-05,-0.000139562,-7.67E-05,1.23E-05,-5.46E-05,6.83E-05,-8.16E-05,-6.84E-05,-8.17E-06,1.96E-07,3.51E-05,8.15E-07,-1.66E-05,-4.66E-05,-7.00E-05,8.22E-05,-3.08E-05,-6.29E-05,-1.33E-05,-1.98E-05,-0.000156574,-7.97E-05,2.84E-05,-0.000109555,8.07E-05,7.52E-05,5.42E-05,-0.000126309,1.48E-05,-5.25E-06,,,,,,,,,,,,,,,,,,,,,,,,,,,,,,,,,,,,,,,,,,,,,,,,,,,,,,
2.64E-05,0.000101289,3.08E-05,1.11E-05,-1.49E-05,-3.14E-05,4.47E-05,4.75E-05,4.27E-05,-2.32E-05,-7.94E-05,0.000100347,9.05E-06,-6.56E-06,-5.81E-05,6.56E-06,0.00013001,4.04E-05,-8.28E-06,-2.13E-05,2.74E-05,5.80E-05,-3.37E-05,-6.50E-05,-5.54E-05,-5.07E-05,-0.000140227,-7.84E-05,6.72E-06,-5.30E-05,6.49E-05,-7.39E-05,-5.79E-05,-1.02E-05,2.89E-06,3.62E-05,-4.75E-06,-1.33E-05,-3.75E-05,-6.86E-05,7.45E-05,-3.82E-05,-5.92E-05,-1.41E-05,-1.53E-05,-0.00013657,-7.66E-05,2.92E-05,-0.000109273,8.33E-05,7.44E-05,4.94E-05,-0.000106427,1.62E-05,-6.73E-06,,,,,,,,,,,,,,,,,,,,,,,,,,,,,,,,,,,,,,,,,,,,,,,,,,,,,,
2.30E-05,0.000102539,3.35E-05,2.43E-05,-1.64E-05,-3.10E-05,5.83E-05,5.00E-05,4.85E-05,-2.46E-05,-7.49E-05,9.33E-05,1.21E-05,-6.22E-06,-5.10E-05,1.19E-05,0.000121667,3.25E-05,4.22E-06,-2.13E-05,2.58E-05,4.21E-05,-2.07E-05,-6.26E-05,-3.75E-05,-6.73E-05,-0.000142438,-7.86E-05,2.24E-06,-5.44E-05,6.32E-05,-7.04E-05,-5.22E-05,-1.32E-05,6.04E-06,3.76E-05,-8.52E-06,-1.25E-05,-3.37E-05,-6.79E-05,6.98E-05,-4.39E-05,-5.70E-05,-1.48E-05,-1.13E-05,-0.000122662,-7.34E-05,2.98E-05,-0.000109243,8.52E-05,7.47E-05,4.59E-05,-9.59E-05,1.78E-05,-7.87E-06,,,,,,,,,,,,,,,,,,,,,,,,,,,,,,,,,,,,,,,,,,,,,,,,,,,,,,
1.84E-05,0.000105587,3.74E-05,3.52E-05,-1.91E-05,-3.04E-05,6.94E-05,5.18E-05,5.33E-05,-2.53E-05,-6.99E-05,9.10E-05,1.46E-05,-5.49E-06,-4.60E-05,1.62E-05,0.000114688,2.37E-05,1.59E-05,-2.11E-05,2.48E-05,3.06E-05,-6.12E-06,-6.11E-05,-2.61E-05,-8.18E-05,-0.000145614,-7.77E-05,-8.64E-07,-5.80E-05,6.30E-05,-7.04E-05,-5.01E-05,-1.69E-05,9.51E-06,3.90E-05,-1.03E-05,-1.36E-05,-3.42E-05,-6.81E-05,6.80E-05,-4.74E-05,-5.56E-05,-1.53E-05,-7.50E-06,-0.000114241,-7.02E-05,3.01E-05,-1.08E-04,8.73E-05,7.56E-05,4.33E-05,-9.17E-05,1.98E-05,-8.44E-06,,,,,,,,,,,,,,,,,,,,,,,,,,,,,,,,,,,,,,,,,,,,,,,,,,,,,,
1.37E-05,0.000109181,4.23E-05,4.48E-05,-2.25E-05,-2.91E-05,7.83E-05,5.25E-05,5.67E-05,-2.51E-05,-6.45E-05,9.14E-05,1.71E-05,-4.23E-06,-4.20E-05,1.94E-05,0.000109421,1.39E-05,2.69E-05,-2.04E-05,2.42E-05,2.10E-05,8.86E-06,-5.94E-05,-1.85E-05,-9.58E-05,-0.000148778,-7.59E-05,-2.66E-06,-6.25E-05,6.38E-05,-7.25E-05,-4.98E-05,-2.07E-05,1.32E-05,3.99E-05,-1.01E-05,-1.56E-05,-3.74E-05,-6.91E-05,6.85E-05,-4.86E-05,-5.40E-05,-1.58E-05,-3.84E-06,-0.000109666,-6.69E-05,2.98E-05,-1.06E-04,9.01E-05,7.62E-05,4.10E-05,-8.96E-05,2.22E-05,-8.22E-06,,,,,,,,,,,,,,,,,,,,,,,,,,,,,,,,,,,,,,,,,,,,,,,,,,,,,,
9.43E-06,0.00011213,4.75E-05,5.40E-05,-2.64E-05,-2.72E-05,8.57E-05,5.23E-05,5.85E-05,-2.38E-05,-5.88E-05,9.24E-05,2.00E-05,-2.49E-06,-3.78E-05,2.15E-05,0.000105871,3.33E-06,3.74E-05,-1.87E-05,2.37E-05,1.09E-05,2.30E-05,-5.65E-05,-1.23E-05,-0.000110321,-0.000150971,-7.35E-05,-3.39E-06,-6.66E-05,6.51E-05,-7.52E-05,-4.97E-05,-2.40E-05,1.69E-05,4.01E-05,-8.03E-06,-1.77E-05,-4.16E-05,-7.06E-05,7.04E-05,-4.76E-05,-5.13E-05,-1.62E-05,4.01E-08,-0.00010717,-6.37E-05,2.90E-05,-9.95E-05,9.36E-05,7.57E-05,3.81E-05,-8.62E-05,2.48E-05,-7.10E-06,,,,,,,,,,,,,,,,,,,,,,,,,,,,,,,,,,,,,,,,,,,,,,,,,,,,,,
6.06E-06,0.000113602,5.27E-05,6.31E-05,-3.04E-05,-2.46E-05,9.21E-05,5.10E-05,5.84E-05,-2.15E-05,-5.32E-05,9.27E-05,2.35E-05,-4.47E-07,-3.30E-05,2.26E-05,0.000103888,-7.89E-06,4.73E-05,-1.63E-05,2.31E-05,-1.42E-06,3.52E-05,-5.21E-05,-5.88E-06,-0.0001258,-0.000151543,-7.05E-05,-3.35E-06,-6.94E-05,6.66E-05,-7.77E-05,-4.86E-05,-2.65E-05,2.07E-05,3.94E-05,-4.24E-06,-1.95E-05,-4.58E-05,-7.22E-05,7.29E-05,-4.45E-05,-4.68E-05,-1.67E-05,4.37E-06,-0.000105471,-6.06E-05,2.77E-05,-8.99E-05,9.77E-05,7.37E-05,3.42E-05,-7.98E-05,2.75E-05,-5.01E-06,,,,,,,,,,,,,,,,,,,,,,,,,,,,,,,,,,,,,,,,,,,,,,,,,,,,,,
3.74E-06,0.000113228,5.75E-05,7.22E-05,-3.44E-05,-2.14E-05,9.76E-05,4.86E-05,5.68E-05,-1.83E-05,-4.80E-05,9.18E-05,2.77E-05,1.61E-06,-2.74E-05,2.26E-05,0.000103267,-1.95E-05,5.62E-05,-1.32E-05,2.23E-05,-1.65E-05,4.46E-05,-4.61E-05,1.51E-06,-0.000141901,-0.000150266,-6.74E-05,-2.91E-06,-7.03E-05,6.79E-05,-7.94E-05,-4.62E-05,-2.82E-05,2.44E-05,3.79E-05,1.08E-06,-2.06E-05,-4.93E-05,-7.38E-05,7.55E-05,-3.97E-05,-4.04E-05,-1.72E-05,9.27E-06,-0.000103996,-5.81E-05,2.63E-05,-7.66E-05,0.000101821,7.00E-05,2.90E-05,-7.00E-05,3.00E-05,-2.01E-06,,,,,,,,,,,,,,,,,,,,,,,,,,,,,,,,,,,,,,,,,,,,,,,,,,,,,,
2.42E-06,0.000111025,6.14E-05,8.08E-05,-3.83E-05,-1.80E-05,0.000102188,4.54E-05,5.37E-05,-1.47E-05,-4.35E-05,8.99E-05,3.25E-05,3.35E-06,-2.15E-05,2.17E-05,0.000103768,-3.12E-05,6.38E-05,-9.88E-06,2.13E-05,-3.41E-05,5.04E-05,-3.90E-05,9.63E-06,-0.000157802,-0.000147279,-6.43E-05,-2.43E-06,-6.91E-05,6.92E-05,-8.01E-05,-4.25E-05,-2.89E-05,2.80E-05,3.57E-05,7.67E-06,-2.11E-05,-5.19E-05,-7.49E-05,7.79E-05,-3.34E-05,-3.21E-05,-1.77E-05,1.47E-05,-0.000102773,-5.64E-05,2.50E-05,-6.05E-05,0.000105472,6.48E-05,2.25E-05,-5.78E-05,3.21E-05,1.74E-06,,,,,,,,,,,,,,,,,,,,,,,,,,,,,,,,,,,,,,,,,,,,,,,,,,,,,,
1.99E-06,0.000107246,6.43E-05,8.86E-05,-4.19E-05,-1.47E-05,0.000105848,4.16E-05,4.95E-05,-1.10E-05,-4.02E-05,8.78E-05,3.76E-05,4.48E-06,-1.57E-05,1.98E-05,0.000105069,-4.28E-05,6.94E-05,-6.65E-06,2.00E-05,-5.33E-05,5.22E-05,-3.13E-05,1.78E-05,-0.000172526,-0.000142946,-6.17E-05,-2.26E-06,-6.60E-05,7.06E-05,-7.98E-05,-3.81E-05,-2.89E-05,3.13E-05,3.31E-05,1.52E-05,-2.09E-05,-5.37E-05,-7.53E-05,7.99E-05,-2.63E-05,-2.24E-05,-1.82E-05,2.04E-05,-0.000102126,-5.59E-05,2.39E-05,-4.27E-05,0.00010815,5.83E-05,1.51E-05,-4.47E-05,3.32E-05,6.02E-06,,,,,,,,,,,,,,,,,,,,,,,,,,,,,,,,,,,,,,,,,,,,,,,,,,,,,,
2.31E-06,0.000102216,6.59E-05,9.51E-05,-4.52E-05,-1.18E-05,0.000108351,3.72E-05,4.47E-05,-7.44E-06,-3.84E-05,8.61E-05,4.26E-05,4.77E-06,-1.05E-05,1.73E-05,0.000106718,-5.43E-05,7.28E-05,-3.82E-06,1.84E-05,-7.31E-05,5.01E-05,-2.36E-05,2.53E-05,-0.000185245,-0.000137684,-5.97E-05,-2.73E-06,-6.09E-05,7.22E-05,-7.89E-05,-3.34E-05,-2.82E-05,3.42E-05,3.06E-05,2.31E-05,-2.01E-05,-5.47E-05,-7.46E-05,8.14E-05,-1.88E-05,-1.17E-05,-1.88E-05,2.61E-05,-0.000102369,-5.66E-05,2.33E-05,-2.44E-05,0.000109512,5.09E-05,7.38E-06,-3.24E-05,3.32E-05,1.06E-05,,,,,,,,,,,,,,,,,,,,,,,,,,,,,,,,,,,,,,,,,,,,,,,,,,,,,,
3.31E-06,9.62E-05,6.63E-05,0.000100128,-4.79E-05,-9.36E-06,0.000109521,3.26E-05,3.94E-05,-4.33E-06,-3.81E-05,8.53E-05,4.70E-05,4.12E-06,-6.18E-06,1.44E-05,0.000108102,-6.56E-05,7.40E-05,-1.58E-06,1.65E-05,-9.23E-05,4.45E-05,-1.61E-05,3.16E-05,-0.00019547,-0.000131839,-5.87E-05,-4.13E-06,-5.42E-05,7.42E-05,-7.73E-05,-2.90E-05,-2.72E-05,3.67E-05,2.83E-05,3.08E-05,-1.89E-05,-5.51E-05,-7.25E-05,8.25E-05,-1.14E-05,-4.67E-07,-1.92E-05,3.14E-05,-0.00010358,-5.85E-05,2.31E-05,-7.26E-06,0.000109412,4.27E-05,-2.70E-07,-2.18E-05,3.18E-05,1.51E-05,,,,,,,,,,,,,,,,,,,,,,,,,,,,,,,,,,,,,,,,,,,,,,,,,,,,,,
5.01E-06,8.95E-05,6.54E-05,0.000103573,-4.99E-05,-7.51E-06,0.000109231,2.80E-05,3.41E-05,-1.77E-06,-3.92E-05,8.57E-05,5.06E-05,2.58E-06,-2.86E-06,1.15E-05,0.00010848,-7.70E-05,7.30E-05,7.11E-09,1.44E-05,-0.000110039,3.65E-05,-8.95E-06,3.66E-05,-0.000203108,-0.000125617,-5.85E-05,-6.64E-06,-4.60E-05,7.69E-05,-7.51E-05,-2.51E-05,-2.60E-05,3.87E-05,2.65E-05,3.78E-05,-1.71E-05,-5.48E-05,-6.88E-05,8.29E-05,-4.77E-06,1.08E-05,-1.95E-05,3.60E-05,-0.000105536,-6.10E-05,2.33E-05,7.71E-06,0.000107915,3.40E-05,-7.26E-06,-1.35E-05,2.89E-05,1.93E-05,,,,,,,,,,,,,,,,,,,,,,,,,,,,,,,,,,,,,,,,,,,,,,,,,,,,,,
7.45E-06,8.22E-05,6.33E-05,0.000105659,-5.10E-05,-6.21E-06,0.000107419,2.36E-05,2.91E-05,2.46E-07,-4.13E-05,8.72E-05,5.31E-05,2.59E-07,-4.11E-07,9.12E-06,0.000107074,-8.82E-05,7.03E-05,9.88E-07,1.19E-05,-0.000125627,2.76E-05,-2.20E-06,4.05E-05,-0.00020841,-0.0001191,-5.92E-05,-1.04E-05,-3.66E-05,8.01E-05,-7.23E-05,-2.19E-05,-2.47E-05,4.00E-05,2.52E-05,4.33E-05,-1.48E-05,-5.38E-05,-6.30E-05,8.27E-05,7.53E-07,2.17E-05,-1.95E-05,3.95E-05,-0.000107765,-6.36E-05,2.36E-05,1.95E-05,0.000105264,2.49E-05,-1.31E-05,-7.40E-06,2.45E-05,2.30E-05,,,,,,,,,,,,,,,,,,,,,,,,,,,,,,,,,,,,,,,,,,,,,,,,,,,,,,
1.07E-05,7.45E-05,6.02E-05,0.000106672,-5.12E-05,-5.36E-06,0.000104095,1.96E-05,2.47E-05,1.84E-06,-4.38E-05,8.93E-05,5.42E-05,-2.61E-06,1.35E-06,7.52E-06,0.000103189,-9.95E-05,6.64E-05,1.49E-06,9.03E-06,-0.000138491,1.94E-05,4.30E-06,4.36E-05,-0.00021185,-0.000112288,-6.05E-05,-1.52E-05,-2.63E-05,8.40E-05,-6.89E-05,-1.94E-05,-2.35E-05,4.06E-05,2.46E-05,4.70E-05,-1.21E-05,-5.20E-05,-5.51E-05,8.18E-05,4.73E-06,3.18E-05,-1.92E-05,4.17E-05,-0.000109683,-6.56E-05,2.40E-05,2.77E-05,0.000101838,1.54E-05,-1.74E-05,-3.27E-06,1.87E-05,2.61E-05,,,,,,,,,,,,,,,,,,,,,,,,,,,,,,,,,,,,,,,,,,,,,,,,,,,,,,
1.48E-05,6.67E-05,5.62E-05,0.000106915,-5.03E-05,-4.85E-06,9.93E-05,1.62E-05,2.12E-05,3.21E-06,-4.61E-05,9.18E-05,5.41E-05,-5.77E-06,2.58E-06,6.99E-06,9.63E-05,-0.00011067,6.18E-05,1.68E-06,5.91E-06,-0.000148208,1.34E-05,1.07E-05,4.62E-05,-0.000214,-0.000105164,-6.21E-05,-2.09E-05,-1.56E-05,8.85E-05,-6.50E-05,-1.76E-05,-2.25E-05,4.05E-05,2.44E-05,4.85E-05,-8.95E-06,-4.95E-05,-4.50E-05,8.02E-05,6.91E-06,4.09E-05,-1.85E-05,4.25E-05,-0.000110737,-6.63E-05,2.44E-05,3.22E-05,9.81E-05,5.91E-06,-1.99E-05,-6.40E-07,1.18E-05,2.85E-05,,,,,,,,,,,,,,,,,,,,,,,,,,,,,,,,,,,,,,,,,,,,,,,,,,,,,,
1.97E-05,5.90E-05,5.16E-05,0.000106648,-4.85E-05,-4.54E-06,9.34E-05,1.34E-05,1.85E-05,4.60E-06,-4.76E-05,9.40E-05,5.28E-05,-8.93E-06,3.38E-06,7.64E-06,8.64E-05,-0.000121475,5.70E-05,1.74E-06,2.63E-06,-0.000154462,1.10E-05,1.70E-05,4.86E-05,-0.000215417,-9.77E-05,-6.35E-05,-2.72E-05,-5.05E-06,9.35E-05,-6.07E-05,-1.64E-05,-2.16E-05,3.95E-05,2.46E-05,4.80E-05,-5.68E-06,-4.65E-05,-3.30E-05,7.80E-05,7.17E-06,4.87E-05,-1.75E-05,4.18E-05,-0.000110513,-6.50E-05,2.47E-05,3.31E-05,9.45E-05,-3.52E-06,-2.04E-05,8.53E-07,3.98E-06,3.02E-05,,,,,,,,,,,,,,,,,,,,,,,,,,,,,,,,,,,,,,,,,,,,,,,,,,,,,,
2.53E-05,5.17E-05,4.66E-05,0.000106051,-4.58E-05,-4.35E-06,8.64E-05,1.15E-05,1.68E-05,6.24E-06,-4.77E-05,9.56E-05,5.05E-05,-1.18E-05,3.77E-06,9.42E-06,7.36E-05,-0.000131642,5.26E-05,1.87E-06,-6.27E-07,-0.000157058,1.27E-05,2.34E-05,5.09E-05,-0.000216586,-9.01E-05,-6.46E-05,-3.35E-05,4.89E-06,9.90E-05,-5.65E-05,-1.57E-05,-2.10E-05,3.76E-05,2.50E-05,4.56E-05,-2.50E-06,-4.31E-05,-1.93E-05,7.55E-05,5.57E-06,5.48E-05,-1.61E-05,3.99E-05,-0.000108781,-6.12E-05,2.50E-05,3.13E-05,9.17E-05,-1.26E-05,-1.90E-05,1.47E-06,-4.25E-06,3.13E-05,,,,,,,,,,,,,,,,,,,,,,,,,,,,,,,,,,,,,,,,,,,,,,,,,,,,,,
3.12E-05,4.51E-05,4.15E-05,0.000105223,-4.25E-05,-4.21E-06,7.89E-05,1.05E-05,1.61E-05,8.35E-06,-4.62E-05,9.63E-05,4.75E-05,-1.42E-05,3.71E-06,1.21E-05,5.85E-05,-0.000140829,4.89E-05,2.23E-06,-3.65E-06,-0.000155942,1.83E-05,2.98E-05,5.29E-05,-0.000217889,-8.24E-05,-6.49E-05,-3.92E-05,1.37E-05,0.000104896,-5.25E-05,-1.56E-05,-2.06E-05,3.50E-05,2.54E-05,4.17E-05,3.72E-07,-3.96E-05,-4.48E-06,7.28E-05,2.26E-06,5.92E-05,-1.44E-05,3.69E-05,-0.00010549,-5.48E-05,2.54E-05,2.76E-05,8.99E-05,-2.11E-05,-1.59E-05,1.37E-06,-1.25E-05,3.19E-05,,,,,,,,,,,,,,,,,,,,,,,,,,,,,,,,,,,,,,,,,,,,,,,,,,,,,,
3.71E-05,3.96E-05,3.65E-05,0.000104202,-3.88E-05,-4.08E-06,7.13E-05,1.03E-05,1.60E-05,1.10E-05,-4.30E-05,9.58E-05,4.41E-05,-1.58E-05,3.13E-06,1.54E-05,4.20E-05,-0.000148694,4.62E-05,2.99E-06,-6.22E-06,-1.51E-04,2.71E-05,3.63E-05,5.46E-05,-0.000219607,-7.49E-05,-6.44E-05,-4.39E-05,2.11E-05,0.000110906,-4.89E-05,-1.58E-05,-2.02E-05,3.15E-05,2.57E-05,3.71E-05,2.73E-06,-3.63E-05,1.11E-05,7.01E-05,-2.45E-06,6.17E-05,-1.26E-05,3.33E-05,-0.00010072,-4.59E-05,2.59E-05,2.33E-05,8.97E-05,-2.87E-05,-1.14E-05,7.04E-07,-2.04E-05,3.22E-05,,,,,,,,,,,,,,,,,,,,,,,,,,,,,,,,,,,,,,,,,,,,,,,,,,,,,,
4.22E-05,3.53E-05,3.16E-05,0.000102992,-3.50E-05,-3.99E-06,6.42E-05,1.09E-05,1.65E-05,1.43E-05,-3.81E-05,9.40E-05,4.06E-05,-1.65E-05,2.02E-06,1.87E-05,2.52E-05,-0.000154928,4.46E-05,4.26E-06,-8.12E-06,-1.43E-04,3.76E-05,4.29E-05,5.58E-05,-0.000221933,-6.76E-05,-6.31E-05,-4.71E-05,2.67E-05,0.000116799,-4.59E-05,-1.61E-05,-1.98E-05,2.73E-05,2.58E-05,3.24E-05,4.45E-06,-3.32E-05,2.69E-05,6.76E-05,-8.19E-06,6.23E-05,-1.08E-05,2.95E-05,-9.46E-05,-3.47E-05,2.68E-05,1.94E-05,9.13E-05,-3.54E-05,-6.02E-06,-3.38E-07,-2.75E-05,3.21E-05,,,,,,,,,,,,,,,,,,,,,,,,,,,,,,,,,,,,,,,,,,,,,,,,,,,,,,
4.61E-05,3.22E-05,2.69E-05,0.000101583,-3.13E-05,-3.94E-06,5.79E-05,1.21E-05,1.72E-05,1.82E-05,-3.18E-05,9.08E-05,3.73E-05,-1.60E-05,4.38E-07,2.17E-05,9.16E-06,-0.000159289,4.42E-05,6.13E-06,-9.22E-06,-1.32E-04,4.83E-05,4.95E-05,5.64E-05,-0.000224976,-6.07E-05,-6.09E-05,-4.85E-05,3.05E-05,0.000122233,-4.36E-05,-1.63E-05,-1.92E-05,2.26E-05,2.55E-05,2.82E-05,5.54E-06,-3.03E-05,4.25E-05,6.52E-05,-1.45E-05,6.13E-05,-9.09E-06,2.58E-05,-8.74E-05,-2.19E-05,2.81E-05,1.72E-05,9.49E-05,-4.11E-05,-2.71E-07,-1.50E-06,-3.36E-05,3.18E-05,,,,,,,,,,,,,,,,,,,,,,,,,,,,,,,,,,,,,,,,,,,,,,,,,,,,,,
4.78E-05,3.02E-05,2.23E-05,1.00E-04,-2.79E-05,-4.00E-06,5.30E-05,1.39E-05,1.80E-05,2.25E-05,-2.45E-05,8.63E-05,3.43E-05,-1.44E-05,-1.51E-06,2.39E-05,-5.09E-06,-0.000161607,4.48E-05,8.62E-06,-9.43E-06,-1.19E-04,5.74E-05,5.64E-05,5.64E-05,-0.000228769,-5.45E-05,-5.80E-05,-4.80E-05,3.26E-05,0.000126817,-4.17E-05,-1.60E-05,-1.83E-05,1.76E-05,2.50E-05,2.52E-05,6.09E-06,-2.76E-05,5.78E-05,6.30E-05,-2.11E-05,5.89E-05,-7.73E-06,2.27E-05,-7.91E-05,-8.14E-06,2.98E-05,1.77E-05,0.000100683,-4.59E-05,5.36E-06,-2.45E-06,-3.84E-05,3.14E-05,,,,,,,,,,,,,,,,,,,,,,,,,,,,,,,,,,,,,,,,,,,,,,,,,,,,,,
4.68E-05,2.90E-05,1.78E-05,9.81E-05,-2.48E-05,-4.21E-06,4.96E-05,1.58E-05,1.86E-05,2.69E-05,-1.65E-05,8.07E-05,3.17E-05,-1.16E-05,-3.64E-06,2.50E-05,-1.68E-05,-0.000161794,4.61E-05,1.17E-05,-8.75E-06,-1.03E-04,6.35E-05,6.34E-05,5.57E-05,-0.000233263,-4.88E-05,-5.45E-05,-4.55E-05,3.32E-05,0.000130149,-4.01E-05,-1.49E-05,-1.70E-05,1.26E-05,2.43E-05,2.37E-05,6.28E-06,-2.48E-05,7.24E-05,6.08E-05,-2.75E-05,5.54E-05,-6.79E-06,2.03E-05,-7.01E-05,5.63E-06,3.18E-05,2.14E-05,0.000108523,-4.99E-05,1.05E-05,-2.84E-06,-4.18E-05,3.09E-05,,,,,,,,,,,,,,,,,,,,,,,,,,,,,,,,,,,,,,,,,,,,,,,,,,,,,,
4.25E-05,2.83E-05,1.31E-05,9.61E-05,-2.19E-05,-4.65E-06,4.77E-05,1.78E-05,1.92E-05,3.14E-05,-8.08E-06,7.46E-05,2.96E-05,-7.61E-06,-5.78E-06,2.47E-05,-2.56E-05,-0.000159842,4.80E-05,1.52E-05,-7.27E-06,-8.58E-05,6.53E-05,7.07E-05,5.47E-05,-0.000238327,-4.38E-05,-5.05E-05,-4.12E-05,3.25E-05,0.000131859,-3.85E-05,-1.27E-05,-1.51E-05,7.89E-06,2.36E-05,2.40E-05,6.34E-06,-2.17E-05,8.64E-05,5.86E-05,-3.35E-05,5.12E-05,-6.39E-06,1.89E-05,-6.03E-05,1.86E-05,3.39E-05,2.87E-05,0.000118219,-5.33E-05,1.48E-05,-2.33E-06,-4.37E-05,3.03E-05,,,,,,,,,,,,,,,,,,,,,,,,,,,,,,,,,,,,,,,,,,,,,,,,,,,,,,
3.47E-05,2.79E-05,8.34E-06,9.39E-05,-1.92E-05,-5.34E-06,4.71E-05,1.95E-05,1.95E-05,3.55E-05,3.94E-07,6.82E-05,2.77E-05,-2.51E-06,-7.76E-06,2.29E-05,-3.14E-05,-0.000155813,5.01E-05,1.90E-05,-5.12E-06,-6.70E-05,6.23E-05,7.81E-05,5.33E-05,-0.000243742,-3.94E-05,-4.60E-05,-3.53E-05,3.08E-05,0.00013166,-3.66E-05,-9.45E-06,-1.26E-05,3.77E-06,2.29E-05,2.59E-05,6.52E-06,-1.79E-05,9.97E-05,5.60E-05,-3.88E-05,4.68E-05,-6.58E-06,1.82E-05,-4.99E-05,3.02E-05,3.59E-05,3.95E-05,0.000129393,-5.65E-05,1.84E-05,-6.85E-07,-4.42E-05,2.95E-05,,,,,,,,,,,,,,,,,,,,,,,,,,,,,,,,,,,,,,,,,,,,,,,,,,,,,,
2.36E-05,2.74E-05,3.24E-06,9.15E-05,-1.64E-05,-6.29E-06,4.75E-05,2.07E-05,1.99E-05,3.92E-05,8.79E-06,6.22E-05,2.59E-05,3.50E-06,-9.50E-06,1.97E-05,-3.45E-05,-0.000149838,5.20E-05,2.29E-05,-2.44E-06,-4.68E-05,5.46E-05,8.56E-05,5.19E-05,-0.000249221,-3.56E-05,-4.07E-05,-2.83E-05,2.84E-05,0.000129391,-3.42E-05,-5.07E-06,-9.42E-06,5.53E-07,2.25E-05,2.92E-05,7.06E-06,-1.34E-05,0.000112321,5.31E-05,-4.34E-05,4.24E-05,-7.37E-06,1.82E-05,-3.92E-05,3.98E-05,3.74E-05,5.30E-05,0.000141517,-5.96E-05,2.11E-05,2.24E-06,-4.33E-05,2.85E-05,,,,,,,,,,,,,,,,,,,,,,,,,,,,,,,,,,,,,,,,,,,,,,,,,,,,,,
9.59E-06,2.65E-05,-2.24E-06,8.88E-05,-1.34E-05,-7.45E-06,4.83E-05,2.12E-05,2.06E-05,4.22E-05,1.70E-05,5.72E-05,2.38E-05,1.02E-05,-1.10E-05,1.55E-05,-3.54E-05,-0.000142114,5.34E-05,2.64E-05,5.59E-07,-2.53E-05,4.28E-05,9.28E-05,5.05E-05,-0.000254421,-3.22E-05,-3.44E-05,-2.05E-05,2.54E-05,0.000125044,-3.12E-05,2.18E-07,-5.59E-06,-1.54E-06,2.27E-05,3.34E-05,8.15E-06,-8.04E-06,0.00012421,4.96E-05,-4.72E-05,3.84E-05,-8.72E-06,1.86E-05,-2.84E-05,4.72E-05,3.82E-05,6.87E-05,0.000153948,-6.30E-05,2.33E-05,6.44E-06,-4.11E-05,2.74E-05,,,,,,,,,,,,,,,,,,,,,,,,,,,,,,,,,,,,,,,,,,,,,,,,,,,,,,
-6.35E-06,2.51E-05,-8.16E-06,8.60E-05,-9.83E-06,-8.68E-06,4.88E-05,2.08E-05,2.17E-05,4.46E-05,2.50E-05,5.35E-05,2.13E-05,1.73E-05,-1.24E-05,1.05E-05,-3.49E-05,-0.000132898,5.40E-05,2.95E-05,3.70E-06,-2.32E-06,2.79E-05,9.96E-05,4.92E-05,-0.00025898,-2.93E-05,-2.70E-05,-1.22E-05,2.20E-05,0.000118781,-2.75E-05,6.12E-06,-1.13E-06,-2.38E-06,2.35E-05,3.78E-05,9.91E-06,-1.93E-06,0.000135314,4.55E-05,-5.03E-05,3.47E-05,-1.05E-05,1.89E-05,-1.77E-05,5.25E-05,3.80E-05,8.52E-05,0.000165973,-6.66E-05,2.51E-05,1.18E-05,-3.77E-05,2.62E-05,,,,,,,,,,,,,,,,,,,,,,,,,,,,,,,,,,,,,,,,,,,,,,,,,,,,,,
-2.30E-05,2.31E-05,-1.45E-05,8.28E-05,-5.62E-06,-9.82E-06,4.87E-05,1.96E-05,2.35E-05,4.62E-05,3.27E-05,5.15E-05,1.79E-05,2.44E-05,-1.39E-05,5.34E-06,-3.38E-05,-0.000122503,5.38E-05,3.19E-05,6.82E-06,2.21E-05,1.15E-05,0.000105614,4.82E-05,-0.000262548,-2.67E-05,-1.81E-05,-4.05E-06,1.83E-05,0.00011092,-2.31E-05,1.23E-05,3.92E-06,-1.94E-06,2.50E-05,4.18E-05,1.24E-05,4.66E-06,0.000145526,4.07E-05,-5.29E-05,3.16E-05,-1.26E-05,1.89E-05,-7.41E-06,5.59E-05,3.66E-05,0.000101487,0.00017688,-7.06E-05,2.69E-05,1.82E-05,-3.32E-05,2.51E-05,,,,,,,,,,,,,,,,,,,,,,,,,,,,,,,,,,,,,,,,,,,,,,,,,,,,,,
-3.88E-05,2.05E-05,-2.13E-05,7.93E-05,-5.90E-07,-1.06E-05,4.75E-05,1.74E-05,2.62E-05,4.72E-05,4.01E-05,5.13E-05,1.36E-05,3.12E-05,-1.58E-05,3.34E-07,-3.29E-05,-0.000111296,5.26E-05,3.33E-05,9.72E-06,4.78E-05,-4.79E-06,0.000110638,4.73E-05,-0.000264824,-2.45E-05,-7.68E-06,3.67E-06,1.44E-05,0.000101919,-1.80E-05,1.83E-05,9.44E-06,-3.31E-07,2.71E-05,4.45E-05,1.56E-05,1.14E-05,0.000154705,3.51E-05,-5.51E-05,2.91E-05,-1.47E-05,1.83E-05,2.12E-06,5.78E-05,3.41E-05,0.00011635,0.000186022,-7.50E-05,2.86E-05,2.53E-05,-2.78E-05,2.42E-05,,,,,,,,,,,,,,,,,,,,,,,,,,,,,,,,,,,,,,,,,,,,,,,,,,,,,,
-5.24E-05,1.74E-05,-2.83E-05,7.54E-05,5.32E-06,-1.08E-05,4.51E-05,1.45E-05,2.97E-05,4.75E-05,4.69E-05,5.25E-05,8.30E-06,3.73E-05,-1.82E-05,-4.06E-06,-3.30E-05,-9.97E-05,5.05E-05,3.38E-05,1.23E-05,7.45E-05,-1.92E-05,0.000114428,4.66E-05,-0.000265581,-2.25E-05,4.25E-06,1.05E-05,1.04E-05,9.23E-05,-1.26E-05,2.38E-05,1.53E-05,2.23E-06,2.98E-05,4.54E-05,1.95E-05,1.77E-05,0.000162694,2.88E-05,-5.71E-05,2.72E-05,-1.64E-05,1.69E-05,1.06E-05,5.87E-05,3.04E-05,0.000128768,0.000192884,-7.98E-05,3.04E-05,3.29E-05,-2.15E-05,2.38E-05,,,,,,,,,,,,,,,,,,,,,,,,,,,,,,,,,,,,,,,,,,,,,,,,,,,,,,
-6.26E-05,1.39E-05,-3.55E-05,7.11E-05,1.21E-05,-1.03E-05,4.16E-05,1.10E-05,3.39E-05,4.73E-05,5.32E-05,5.49E-05,1.95E-06,4.25E-05,-2.15E-05,-7.54E-06,-3.45E-05,-8.81E-05,4.75E-05,3.33E-05,1.44E-05,0.000101846,-3.05E-05,0.000116842,4.61E-05,-0.000264691,-2.09E-05,1.74E-05,1.62E-05,6.38E-06,8.27E-05,-6.73E-06,2.86E-05,2.13E-05,5.44E-06,3.27E-05,4.42E-05,2.38E-05,2.33E-05,0.000169332,2.18E-05,-5.91E-05,2.58E-05,-1.73E-05,1.45E-05,1.80E-05,5.92E-05,2.57E-05,0.000137941,0.000197128,-8.47E-05,3.21E-05,4.07E-05,-1.47E-05,2.38E-05,,,,,,,,,,,,,,,,,,,,,,,,,,,,,,,,,,,,,,,,,,,,,,,,,,,,,,
-6.84E-05,1.04E-05,-4.25E-05,6.63E-05,1.98E-05,-8.83E-06,3.71E-05,7.17E-06,3.86E-05,4.65E-05,5.85E-05,5.79E-05,-5.27E-06,4.65E-05,-2.58E-05,-9.94E-06,-3.78E-05,-7.69E-05,4.38E-05,3.19E-05,1.58E-05,0.000128912,-3.75E-05,0.000117829,4.58E-05,-0.000262125,-1.94E-05,3.15E-05,2.04E-05,2.64E-06,7.37E-05,-7.09E-07,3.27E-05,2.71E-05,8.92E-06,3.57E-05,4.06E-05,2.83E-05,2.74E-05,0.000174477,1.42E-05,-6.13E-05,2.52E-05,-1.69E-05,1.12E-05,2.41E-05,5.96E-05,2.02E-05,0.00014333,0.00019862,-8.98E-05,3.36E-05,4.84E-05,-7.37E-06,2.47E-05,,,,,,,,,,,,,,,,,,,,,,,,,,,,,,,,,,,,,,,,,,,,,,,,,,,,,,
-6.93E-05,6.86E-06,-4.93E-05,6.10E-05,2.82E-05,-6.48E-06,3.21E-05,3.34E-06,4.33E-05,4.52E-05,6.27E-05,6.07E-05,-1.31E-05,4.91E-05,-3.10E-05,-1.12E-05,-4.28E-05,-6.66E-05,3.95E-05,3.00E-05,1.66E-05,0.00015473,-3.99E-05,0.000117428,4.56E-05,-0.000257945,-1.81E-05,4.56E-05,2.29E-05,-5.70E-07,6.58E-05,5.38E-06,3.61E-05,3.24E-05,1.23E-05,3.82E-05,3.48E-05,3.28E-05,2.99E-05,0.000178012,6.41E-06,-6.37E-05,2.52E-05,-1.46E-05,7.29E-06,2.92E-05,6.04E-05,1.40E-05,1.45E-04,0.000197426,-9.50E-05,3.45E-05,5.59E-05,1.45E-07,2.65E-05,,,,,,,,,,,,,,,,,,,,,,,,,,,,,,,,,,,,,,,,,,,,,,,,,,,,,,
-6.55E-05,3.62E-06,-5.54E-05,5.52E-05,3.72E-05,-3.42E-06,2.69E-05,-2.18E-07,4.75E-05,4.35E-05,6.56E-05,6.27E-05,-2.12E-05,5.02E-05,-3.70E-05,-1.15E-05,-4.94E-05,-5.74E-05,3.48E-05,2.76E-05,1.65E-05,0.000178069,-3.76E-05,0.00011576,4.54E-05,-0.000252283,-1.68E-05,5.93E-05,2.35E-05,-2.91E-06,5.93E-05,1.14E-05,3.90E-05,3.69E-05,1.51E-05,4.00E-05,2.71E-05,3.70E-05,3.05E-05,0.000179855,-1.44E-06,-6.64E-05,2.61E-05,-9.79E-06,2.97E-06,3.34E-05,6.14E-05,7.40E-06,1.42E-04,0.00019378,-0.000100303,3.47E-05,6.28E-05,7.61E-06,2.92E-05,,,,,,,,,,,,,,,,,,,,,,,,,,,,,,,,,,,,,,,,,,,,,,,,,,,,,,
-5.76E-05,8.29E-07,-6.07E-05,4.90E-05,4.66E-05,2.76E-08,2.20E-05,-3.25E-06,5.06E-05,4.12E-05,6.70E-05,6.35E-05,-2.92E-05,5.00E-05,-4.36E-05,-1.11E-05,-5.71E-05,-4.96E-05,2.97E-05,2.52E-05,1.56E-05,0.000197566,-3.13E-05,0.00011301,4.54E-05,-0.000245311,-1.54E-05,7.17E-05,2.24E-05,-4.05E-06,5.45E-05,1.73E-05,4.17E-05,4.02E-05,1.71E-05,4.09E-05,1.83E-05,4.04E-05,2.91E-05,0.000179964,-8.92E-06,-6.93E-05,2.78E-05,-2.15E-06,-1.39E-06,3.72E-05,6.27E-05,5.99E-07,1.35E-04,0.000188044,-0.000105585,3.38E-05,6.92E-05,1.47E-05,3.28E-05,,,,,,,,,,,,,,,,,,,,,,,,,,,,,,,,,,,,,,,,,,,,,,,,,,,,,,
-4.64E-05,-1.38E-06,-6.50E-05,4.24E-05,5.62E-05,3.42E-06,1.78E-05,-5.54E-06,5.22E-05,3.85E-05,6.69E-05,6.26E-05,-3.67E-05,4.84E-05,-5.02E-05,-1.00E-05,-6.53E-05,-4.33E-05,2.43E-05,2.31E-05,1.39E-05,0.000211825,-2.15E-05,1.09E-04,4.54E-05,-0.000237213,-1.38E-05,8.21E-05,1.95E-05,-3.65E-06,5.15E-05,2.29E-05,4.43E-05,4.22E-05,1.80E-05,4.05E-05,9.12E-06,4.30E-05,2.60E-05,0.000178347,-1.57E-05,-7.20E-05,3.03E-05,8.61E-06,-5.40E-06,4.10E-05,6.39E-05,-6.25E-06,1.25E-04,0.00018065,-0.000110878,3.17E-05,7.46E-05,2.12E-05,3.74E-05,,,,,,,,,,,,,,,,,,,,,,,,,,,,,,,,,,,,,,,,,,,,,,,,,,,,,,
-3.33E-05,-2.95E-06,-6.80E-05,3.55E-05,6.58E-05,6.27E-06,1.43E-05,-6.95E-06,5.19E-05,3.55E-05,6.53E-05,5.98E-05,-4.34E-05,4.57E-05,-5.64E-05,-8.73E-06,-7.34E-05,-3.85E-05,1.85E-05,2.13E-05,1.13E-05,0.000219541,-9.37E-06,1.05E-04,4.55E-05,-0.000228162,-1.16E-05,9.01E-05,1.52E-05,-1.48E-06,5.00E-05,2.82E-05,4.70E-05,4.25E-05,1.77E-05,3.90E-05,4.55E-07,4.43E-05,2.14E-05,0.000175067,-2.13E-05,-7.44E-05,3.36E-05,2.25E-05,-8.72E-06,4.52E-05,6.48E-05,-1.30E-05,1.12E-04,0.000172051,-0.000116171,2.83E-05,7.92E-05,2.68E-05,4.26E-05,,,,,,,,,,,,,,,,,,,,,,,,,,,,,,,,,,,,,,,,,,,,,,,,,,,,,,
-1.96E-05,-3.87E-06,-6.96E-05,2.84E-05,7.53E-05,8.11E-06,1.17E-05,-7.41E-06,4.95E-05,3.21E-05,6.24E-05,5.53E-05,-4.91E-05,4.22E-05,-6.16E-05,-7.32E-06,-8.09E-05,-3.50E-05,1.21E-05,2.02E-05,7.97E-06,0.000219634,4.16E-06,1.01E-04,4.57E-05,-0.000218307,-8.69E-06,9.54E-05,9.91E-06,2.56E-06,4.97E-05,3.28E-05,4.99E-05,4.12E-05,1.60E-05,3.63E-05,-6.84E-06,4.43E-05,1.59E-05,0.000170251,-2.56E-05,-7.59E-05,3.76E-05,3.91E-05,-1.11E-05,5.00E-05,6.50E-05,-1.96E-05,9.62E-05,0.000162683,-0.000121433,2.38E-05,8.26E-05,3.13E-05,4.84E-05,,,,,,,,,,,,,,,,,,,,,,,,,,,,,,,,,,,,,,,,,,,,,,,,,,,,,,
-6.43E-06,-4.21E-06,-7.00E-05,2.14E-05,8.42E-05,8.57E-06,9.96E-06,-6.94E-06,4.51E-05,2.85E-05,5.86E-05,4.92E-05,-5.34E-05,3.82E-05,-6.54E-05,-5.93E-06,-8.72E-05,-3.25E-05,5.13E-06,1.98E-05,4.04E-06,2.11E-04,1.81E-05,9.60E-05,4.60E-05,-0.000207766,-4.75E-06,9.82E-05,3.96E-06,8.41E-06,5.04E-05,3.68E-05,5.30E-05,3.84E-05,1.30E-05,3.27E-05,-1.21E-05,4.29E-05,1.01E-05,0.000164096,-2.82E-05,-7.64E-05,4.21E-05,5.76E-05,-1.22E-05,5.57E-05,6.41E-05,-2.59E-05,7.82E-05,0.000152937,-0.000126611,1.82E-05,8.50E-05,3.45E-05,5.45E-05,,,,,,,,,,,,,,,,,,,,,,,,,,,,,,,,,,,,,,,,,,,,,,,,,,,,,,
5.14E-06,-4.11E-06,-6.93E-05,1.44E-05,9.25E-05,7.46E-06,8.94E-06,-5.61E-06,3.88E-05,2.49E-05,5.42E-05,4.20E-05,-5.63E-05,3.41E-05,-6.73E-05,-4.60E-06,-9.20E-05,-3.07E-05,-2.70E-06,2.00E-05,-3.01E-07,1.95E-04,3.14E-05,9.14E-05,4.63E-05,-0.000196633,3.81E-07,9.87E-05,-2.11E-06,1.59E-05,5.13E-05,3.97E-05,5.59E-05,3.44E-05,8.82E-06,2.85E-05,-1.47E-05,4.02E-05,4.58E-06,0.000156865,-2.93E-05,-7.54E-05,4.70E-05,7.70E-05,-1.21E-05,6.22E-05,6.19E-05,-3.17E-05,5.87E-05,0.00014315,-0.000131617,1.19E-05,8.62E-05,3.64E-05,6.05E-05,,,,,,,,,,,,,,,,,,,,,,,,,,,,,,,,,,,,,,,,,,,,,,,,,,,,,,
1.44E-05,-3.73E-06,-6.75E-05,7.76E-06,9.97E-05,4.80E-06,8.50E-06,-3.56E-06,3.11E-05,2.15E-05,4.97E-05,3.42E-05,-5.78E-05,3.03E-05,-6.70E-05,-3.29E-06,-9.53E-05,-2.92E-05,-1.15E-05,2.09E-05,-4.79E-06,1.69E-04,4.33E-05,8.72E-05,4.67E-05,-0.000184982,6.83E-06,9.76E-05,-7.83E-06,2.45E-05,5.21E-05,4.16E-05,5.86E-05,2.96E-05,3.63E-06,2.42E-05,-1.46E-05,3.64E-05,-2.25E-07,0.00014888,-2.89E-05,-7.28E-05,5.19E-05,9.57E-05,-1.07E-05,6.93E-05,5.83E-05,-3.69E-05,3.80E-05,0.000133612,-0.000136334,5.21E-06,8.64E-05,3.70E-05,6.62E-05,,,,,,,,,,,,,,,,,,,,,,,,,,,,,,,,,,,,,,,,,,,,,,,,,,,,,,
2.10E-05,-3.29E-06,-6.51E-05,1.59E-06,0.000105798,7.98E-07,8.49E-06,-9.74E-07,2.26E-05,1.83E-05,4.56E-05,2.62E-05,-5.79E-05,2.71E-05,-6.45E-05,-1.93E-06,-9.69E-05,-2.76E-05,-2.13E-05,2.21E-05,-9.15E-06,1.37E-04,5.32E-05,8.34E-05,4.73E-05,-0.000172879,1.46E-05,9.54E-05,-1.28E-05,3.38E-05,5.23E-05,4.22E-05,6.06E-05,2.45E-05,-2.37E-06,1.99E-05,-1.18E-05,3.17E-05,-3.89E-06,0.000140493,-2.73E-05,-6.83E-05,5.66E-05,0.00011208,-8.21E-06,7.65E-05,5.33E-05,-4.13E-05,1.69E-05,0.000124565,-0.000140621,-1.53E-06,8.58E-05,3.65E-05,7.14E-05,,,,,,,,,,,,,,,,,,,,,,,,,,,,,,,,,,,,,,,,,,,,,,,,,,,,,,
2.49E-05,-3.00E-06,-6.23E-05,-3.97E-06,0.000110451,-4.14E-06,8.80E-06,1.96E-06,1.37E-05,1.56E-05,4.23E-05,1.86E-05,-5.67E-05,2.47E-05,-5.97E-05,-4.59E-07,-9.70E-05,-2.58E-05,-3.22E-05,2.36E-05,-1.30E-05,9.80E-05,6.05E-05,8.01E-05,4.81E-05,-0.000160386,2.36E-05,9.30E-05,-1.66E-05,4.31E-05,5.14E-05,4.14E-05,6.16E-05,1.97E-05,-8.96E-06,1.62E-05,-6.57E-06,2.67E-05,-6.21E-06,0.000132064,-2.48E-05,-6.21E-05,6.08E-05,1.24E-04,-4.83E-06,8.35E-05,4.71E-05,-4.47E-05,-4.24E-06,0.000116209,-0.000144331,-7.86E-06,8.46E-05,3.50E-05,7.57E-05,,,,,,,,,,,,,,,,,,,,,,,,,,,,,,,,,,,,,,,,,,,,,,,,,,,,,,
2.63E-05,-3.05E-06,-5.96E-05,-8.80E-06,0.000113531,-9.51E-06,9.36E-06,5.01E-06,5.12E-06,1.33E-05,4.02E-05,1.16E-05,-5.43E-05,2.33E-05,-5.30E-05,1.18E-06,-9.60E-05,-2.35E-05,-4.41E-05,2.51E-05,-1.61E-05,5.52E-05,6.49E-05,7.72E-05,4.90E-05,-0.000147565,3.35E-05,9.08E-05,-1.91E-05,5.19E-05,4.91E-05,3.93E-05,6.14E-05,1.57E-05,-1.59E-05,1.32E-05,4.34E-07,2.17E-05,-7.13E-06,0.000123923,-2.18E-05,-5.42E-05,6.45E-05,1.31E-04,-9.07E-07,8.96E-05,4.00E-05,-4.69E-05,-2.48E-05,0.000108697,-0.000147323,-1.34E-05,8.31E-05,3.30E-05,7.90E-05,,,,,,,,,,,,,,,,,,,,,,,,,,,,,,,,,,,,,,,,,,,,,,,,,,,,,,
2.59E-05,-3.58E-06,-5.71E-05,-1.28E-05,0.000114962,-1.47E-05,1.01E-05,8.00E-06,-2.76E-06,1.15E-05,3.95E-05,5.40E-06,-5.08E-05,2.30E-05,-4.47E-05,2.95E-06,-9.42E-05,-2.09E-05,-5.67E-05,2.63E-05,-1.81E-05,1.04E-05,6.66E-05,7.48E-05,5.01E-05,-0.000134483,4.41E-05,8.94E-05,-2.02E-05,5.95E-05,4.55E-05,3.61E-05,5.99E-05,1.29E-05,-2.31E-05,1.10E-05,8.53E-06,1.72E-05,-6.78E-06,0.000116342,-1.88E-05,-4.50E-05,6.75E-05,1.30E-04,3.19E-06,9.45E-05,3.23E-05,-4.79E-05,-4.42E-05,0.000102119,-0.000149479,-1.78E-05,8.15E-05,3.07E-05,8.12E-05,,,,,,,,,,,,,,,,,,,,,,,,,,,,,,,,,,,,,,,,,,,,,,,,,,,,,,
2.41E-05,-4.70E-06,-5.53E-05,-1.60E-05,0.000114771,-1.93E-05,1.12E-05,1.07E-05,-9.60E-06,1.01E-05,4.02E-05,1.75E-07,-4.65E-05,2.37E-05,-3.54E-05,4.79E-06,-9.18E-05,-1.82E-05,-6.99E-05,2.71E-05,-1.87E-05,-3.40E-05,6.57E-05,7.27E-05,5.14E-05,-0.000121216,5.49E-05,8.91E-05,-2.00E-05,6.56E-05,4.06E-05,3.20E-05,5.71E-05,1.16E-05,-3.03E-05,9.65E-06,1.69E-05,1.36E-05,-5.41E-06,0.000109514,-1.62E-05,-3.49E-05,6.98E-05,1.21E-04,7.06E-06,9.78E-05,2.46E-05,-4.75E-05,-6.19E-05,9.65E-05,-0.000150712,-2.08E-05,8.01E-05,2.85E-05,8.22E-05,,,,,,,,,,,,,,,,,,,,,,,,,,,,,,,,,,,,,,,,,,,,,,,,,,,,,,
2.18E-05,-6.41E-06,-5.43E-05,-1.82E-05,0.000113121,-2.29E-05,1.24E-05,1.30E-05,-1.53E-05,9.00E-06,4.23E-05,-4.18E-06,-4.16E-05,2.52E-05,-2.57E-05,6.56E-06,-8.91E-05,-1.56E-05,-8.33E-05,2.72E-05,-1.79E-05,-7.55E-05,6.29E-05,7.05E-05,5.28E-05,-0.000107852,6.55E-05,8.97E-05,-1.86E-05,6.97E-05,3.44E-05,2.73E-05,5.31E-05,1.20E-05,-3.73E-05,8.89E-06,2.49E-05,1.12E-05,-3.38E-06,0.000103532,-1.43E-05,-2.44E-05,7.15E-05,1.04E-04,1.03E-05,9.94E-05,1.71E-05,-4.58E-05,-7.75E-05,9.17E-05,-0.000150973,-2.22E-05,7.92E-05,2.66E-05,8.19E-05,,,,,,,,,,,,,,,,,,,,,,,,,,,,,,,,,,,,,,,,,,,,,,,,,,,,,,
1.97E-05,-8.63E-06,-5.44E-05,-1.97E-05,0.00011032,-2.52E-05,1.38E-05,1.48E-05,-1.97E-05,8.02E-06,4.55E-05,-7.84E-06,-3.63E-05,2.73E-05,-1.61E-05,8.10E-06,-8.62E-05,-1.37E-05,-9.64E-05,2.64E-05,-1.54E-05,-0.000112093,5.87E-05,6.80E-05,5.42E-05,-9.45E-05,7.54E-05,9.11E-05,-1.65E-05,7.16E-05,2.75E-05,2.24E-05,4.81E-05,1.40E-05,-4.41E-05,8.50E-06,3.17E-05,1.01E-05,-1.05E-06,9.84E-05,-1.32E-05,-1.40E-05,7.27E-05,7.88E-05,1.26E-05,9.93E-05,1.03E-05,-4.29E-05,-9.06E-05,8.76E-05,-0.00015025,-2.23E-05,7.90E-05,2.52E-05,8.05E-05,,,,,,,,,,,,,,,,,,,,,,,,,,,,,,,,,,,,,,,,,,,,,,,,,,,,,,
1.85E-05,-1.12E-05,-5.54E-05,-2.03E-05,0.000106835,-2.61E-05,1.54E-05,1.59E-05,-2.32E-05,7.03E-06,4.96E-05,-1.10E-05,-3.09E-05,2.96E-05,-7.22E-06,9.24E-06,-8.30E-05,-1.28E-05,-0.000108908,2.47E-05,-1.13E-05,-0.000142012,5.39E-05,6.49E-05,5.56E-05,-8.13E-05,8.43E-05,9.29E-05,-1.38E-05,7.14E-05,2.01E-05,1.77E-05,4.24E-05,1.74E-05,-5.05E-05,8.17E-06,3.69E-05,1.06E-05,1.24E-06,9.40E-05,-1.30E-05,-4.28E-06,7.36E-05,4.72E-05,1.38E-05,9.78E-05,4.35E-06,-3.91E-05,-0.000100792,8.38E-05,-0.000148565,-2.11E-05,7.97E-05,2.45E-05,7.81E-05,,,,,,,,,,,,,,,,,,,,,,,,,,,,,,,,,,,,,,,,,,,,,,,,,,,,,,
1.85E-05,-1.40E-05,-5.73E-05,-2.03E-05,0.000103273,-2.59E-05,1.69E-05,1.63E-05,-2.59E-05,5.90E-06,5.42E-05,-1.41E-05,-2.58E-05,3.18E-05,7.23E-07,9.88E-06,-7.94E-05,-1.31E-05,-0.000120245,2.20E-05,-5.87E-06,-0.000164052,4.92E-05,6.08E-05,5.68E-05,-6.84E-05,9.17E-05,9.47E-05,-1.07E-05,6.92E-05,1.27E-05,1.36E-05,3.63E-05,2.18E-05,-5.65E-05,7.58E-06,4.00E-05,1.25E-05,3.22E-06,9.02E-05,-1.37E-05,4.44E-06,7.44E-05,1.08E-05,1.37E-05,9.52E-05,-4.09E-07,-3.46E-05,-0.000108015,7.99E-05,-0.00014597,-1.90E-05,8.11E-05,2.44E-05,7.48E-05,,,,,,,,,,,,,,,,,,,,,,,,,,,,,,,,,,,,,,,,,,,,,,,,,,,,,,
2.03E-05,-1.66E-05,-6.00E-05,-1.98E-05,0.000100357,-2.47E-05,1.81E-05,1.62E-05,-2.81E-05,4.57E-06,5.88E-05,-1.72E-05,-2.13E-05,3.35E-05,7.49E-06,9.97E-06,-7.54E-05,-1.48E-05,-0.000130045,1.83E-05,7.20E-07,-0.000177635,4.52E-05,5.56E-05,5.79E-05,-5.59E-05,9.77E-05,9.62E-05,-7.48E-06,6.52E-05,5.59E-06,1.02E-05,3.02E-05,2.69E-05,-6.19E-05,6.51E-06,4.09E-05,1.56E-05,4.71E-06,8.67E-05,-1.51E-05,1.18E-05,7.50E-05,-2.80E-05,1.22E-05,9.22E-05,-3.91E-06,-2.98E-05,-0.000112207,7.57E-05,-0.00014254,-1.66E-05,8.34E-05,2.50E-05,7.09E-05,,,,,,,,,,,,,,,,,,,,,,,,,,,,,,,,,,,,,,,,,,,,,,,,,,,,,,
2.37E-05,-1.87E-05,-6.31E-05,-1.90E-05,9.89E-05,-2.30E-05,1.89E-05,1.54E-05,-3.01E-05,3.05E-06,6.30E-05,-2.06E-05,-1.76E-05,3.45E-05,1.31E-05,9.59E-06,-7.07E-05,-1.75E-05,-0.000137998,1.36E-05,8.13E-06,-1.83E-04,4.22E-05,4.90E-05,5.86E-05,-4.41E-05,1.02E-04,9.71E-05,-4.17E-06,5.96E-05,-7.85E-07,7.91E-06,2.43E-05,3.20E-05,-6.67E-05,4.80E-06,3.97E-05,1.96E-05,5.65E-06,8.33E-05,-1.70E-05,1.78E-05,7.56E-05,-6.65E-05,9.71E-06,8.91E-05,-6.12E-06,-2.51E-05,-0.000113432,7.07E-05,-0.000138367,-1.44E-05,8.64E-05,2.59E-05,6.66E-05,,,,,,,,,,,,,,,,,,,,,,,,,,,,,,,,,,,,,,,,,,,,,,,,,,,,,,
2.87E-05,-2.02E-05,-6.63E-05,-1.80E-05,9.96E-05,-2.12E-05,1.89E-05,1.42E-05,-3.22E-05,1.41E-06,6.66E-05,-2.43E-05,-1.51E-05,3.45E-05,1.76E-05,8.88E-06,-6.53E-05,-2.07E-05,-0.000143926,7.94E-06,1.60E-05,-1.80E-04,4.05E-05,4.09E-05,5.90E-05,-3.31E-05,1.05E-04,9.73E-05,-7.84E-07,5.29E-05,-6.20E-06,6.65E-06,1.89E-05,3.68E-05,-7.09E-05,2.43E-06,3.64E-05,2.44E-05,6.10E-06,7.98E-05,-1.91E-05,2.23E-05,7.60E-05,-0.000102225,6.32E-06,8.66E-05,-7.12E-06,-2.07E-05,-0.000111837,6.47E-05,-0.000133557,-1.29E-05,9.00E-05,2.70E-05,6.21E-05,,,,,,,,,,,,,,,,,,,,,,,,,,,,,,,,,,,,,,,,,,,,,,,,,,,,,,
3.47E-05,-2.07E-05,-6.91E-05,-1.70E-05,0.000103189,-1.97E-05,1.78E-05,1.25E-05,-3.44E-05,-2.10E-07,6.92E-05,-2.84E-05,-1.39E-05,3.34E-05,2.13E-05,8.07E-06,-5.93E-05,-2.33E-05,-0.000147812,1.60E-06,2.38E-05,-1.71E-04,3.96E-05,3.13E-05,5.91E-05,-2.31E-05,1.06E-04,9.70E-05,2.72E-06,4.53E-05,-1.05E-05,6.41E-06,1.42E-05,4.09E-05,-7.46E-05,-5.12E-07,3.13E-05,2.94E-05,6.22E-06,7.58E-05,-2.11E-05,2.55E-05,7.62E-05,-0.000132679,2.47E-06,8.53E-05,-7.04E-06,-1.71E-05,-1.08E-04,5.76E-05,-0.000128223,-1.28E-05,9.39E-05,2.80E-05,5.76E-05,,,,,,,,,,,,,,,,,,,,,,,,,,,,,,,,,,,,,,,,,,,,,,,,,,,,,,
4.10E-05,-2.01E-05,-7.12E-05,-1.62E-05,0.000110201,-1.87E-05,1.57E-05,1.07E-05,-3.69E-05,-1.65E-06,7.08E-05,-3.25E-05,-1.42E-05,3.12E-05,2.45E-05,7.44E-06,-5.28E-05,-2.39E-05,-0.000149797,-5.26E-06,3.13E-05,-1.57E-04,3.90E-05,2.04E-05,5.90E-05,-1.42E-05,1.06E-04,9.64E-05,6.41E-06,3.73E-05,-1.36E-05,7.06E-06,1.01E-05,4.40E-05,-7.78E-05,-3.85E-06,2.50E-05,3.44E-05,6.20E-06,7.14E-05,-2.27E-05,2.78E-05,7.61E-05,-0.000155924,-1.41E-06,8.53E-05,-6.09E-06,-1.43E-05,-1.01E-04,4.94E-05,-0.000122485,-1.43E-05,9.82E-05,2.87E-05,5.33E-05,,,,,,,,,,,,,,,,,,,,,,,,,,,,,,,,,,,,,,,,,,,,,,,,,,,,,,
4.69E-05,-1.82E-05,-7.22E-05,-1.57E-05,0.000120865,-1.84E-05,1.25E-05,8.65E-06,-3.94E-05,-2.74E-06,7.13E-05,-3.64E-05,-1.59E-05,2.80E-05,2.76E-05,7.27E-06,-4.61E-05,-2.08E-05,-0.000150154,-1.24E-05,3.80E-05,-1.39E-04,3.79E-05,8.37E-06,5.86E-05,-6.51E-06,1.05E-04,9.59E-05,1.03E-05,2.92E-05,-1.56E-05,8.38E-06,6.85E-06,4.59E-05,-8.07E-05,-7.33E-06,1.77E-05,3.90E-05,6.28E-06,6.64E-05,-2.39E-05,2.96E-05,7.55E-05,-0.000170644,-4.86E-06,8.70E-05,-4.54E-06,-1.27E-05,-9.23E-05,4.05E-05,-0.000116457,-1.76E-05,1.03E-04,2.88E-05,4.93E-05,,,,,,,,,,,,,,,,,,,,,,,,,,,,,,,,,,,,,,,,,,,,,,,,,,,,,,
5.13E-05,-1.51E-05,-7.19E-05,-1.55E-05,0.000135086,-1.88E-05,8.36E-06,6.55E-06,-4.19E-05,-3.38E-06,7.09E-05,-3.95E-05,-1.89E-05,2.41E-05,3.07E-05,7.81E-06,-3.94E-05,-1.23E-05,-0.000149237,-1.95E-05,4.35E-05,-1.19E-04,3.52E-05,-4.60E-06,5.81E-05,-3.89E-08,1.03E-04,9.58E-05,1.44E-05,2.13E-05,-1.65E-05,1.01E-05,4.28E-06,4.66E-05,-8.35E-05,-1.07E-05,1.01E-05,4.32E-05,6.66E-06,6.07E-05,-2.45E-05,3.13E-05,7.44E-05,-0.000176262,-7.46E-06,9.03E-05,-2.67E-06,-1.24E-05,-8.18E-05,3.10E-05,-0.000110244,-2.28E-05,1.07E-04,2.81E-05,4.56E-05,,,,,,,,,,,,,,,,,,,,,,,,,,,,,,,,,,,,,,,,,,,,,,,,,,,,,,
5.35E-05,-1.09E-05,-7.01E-05,-1.57E-05,0.000152369,-1.98E-05,3.67E-06,4.40E-06,-4.40E-05,-3.50E-06,6.97E-05,-4.12E-05,-2.31E-05,1.98E-05,3.41E-05,9.20E-06,-3.30E-05,3.58E-06,-0.000147416,-2.63E-05,4.76E-05,-9.89E-05,2.98E-05,-1.82E-05,5.76E-05,5.31E-06,1.01E-04,9.66E-05,1.85E-05,1.39E-05,-1.64E-05,1.19E-05,2.40E-06,4.62E-05,-8.63E-05,-1.37E-05,2.68E-06,4.65E-05,7.50E-06,5.46E-05,-2.45E-05,3.32E-05,7.27E-05,-1.73E-04,-8.87E-06,9.50E-05,-7.89E-07,-1.32E-05,-6.97E-05,2.15E-05,-0.000103934,-2.95E-05,0.000111565,2.66E-05,4.23E-05,,,,,,,,,,,,,,,,,,,,,,,,,,,,,,,,,,,,,,,,,,,,,,,,,,,,,,
5.28E-05,-5.92E-06,-6.69E-05,-1.65E-05,0.000171786,-2.13E-05,-1.05E-06,2.23E-06,-4.55E-05,-3.15E-06,6.80E-05,-4.12E-05,-2.82E-05,1.54E-05,3.78E-05,1.15E-05,-2.71E-05,2.83E-05,-0.000145002,-3.24E-05,5.00E-05,-7.96E-05,2.09E-05,-3.23E-05,5.72E-05,9.72E-06,9.87E-05,9.82E-05,2.25E-05,7.36E-06,-1.57E-05,1.36E-05,1.18E-06,4.50E-05,-8.92E-05,-1.62E-05,-4.14E-06,4.91E-05,8.86E-06,4.80E-05,-2.43E-05,3.59E-05,7.04E-05,-1.62E-04,-8.91E-06,1.01E-04,8.06E-07,-1.54E-05,-5.65E-05,1.23E-05,-9.76E-05,-3.73E-05,0.000116048,2.42E-05,3.93E-05,,,,,,,,,,,,,,,,,,,,,,,,,,,,,,,,,,,,,,,,,,,,,,,,,,,,,,
4.88E-05,-3.96E-07,-6.26E-05,-1.76E-05,0.000191988,-2.29E-05,-5.20E-06,2.26E-08,-4.62E-05,-2.48E-06,6.61E-05,-3.88E-05,-3.39E-05,1.13E-05,4.18E-05,1.47E-05,-2.18E-05,6.29E-05,-0.000142194,-3.76E-05,5.06E-05,-6.19E-05,7.92E-06,-4.65E-05,5.68E-05,1.35E-05,9.68E-05,0.000100962,2.61E-05,1.77E-06,-1.44E-05,1.49E-05,5.88E-07,4.30E-05,-9.25E-05,-1.80E-05,-9.89E-06,5.08E-05,1.07E-05,4.13E-05,-2.41E-05,3.93E-05,6.79E-05,-1.44E-04,-7.51E-06,1.07E-04,1.87E-06,-1.86E-05,-4.24E-05,3.82E-06,-9.13E-05,-4.57E-05,0.000120499,2.09E-05,3.67E-05,,,,,,,,,,,,,,,,,,,,,,,,,,,,,,,,,,,,,,,,,,,,,,,,,,,,,,
4.13E-05,5.25E-06,-5.74E-05,-1.92E-05,0.000211254,-2.45E-05,-8.12E-06,-2.23E-06,-4.59E-05,-1.69E-06,6.43E-05,-3.39E-05,-3.97E-05,7.79E-06,4.59E-05,1.84E-05,-1.71E-05,0.000107834,-0.000139047,-4.16E-05,4.92E-05,-4.64E-05,-9.08E-06,-6.07E-05,5.66E-05,1.69E-05,9.52E-05,0.000104573,2.90E-05,-2.70E-06,-1.28E-05,1.57E-05,6.33E-07,4.06E-05,-9.61E-05,-1.90E-05,-1.42E-05,5.16E-05,1.30E-05,3.43E-05,-2.43E-05,4.37E-05,6.53E-05,-1.21E-04,-4.79E-06,1.14E-04,2.22E-06,-2.28E-05,-2.81E-05,-3.85E-06,-8.50E-05,-5.41E-05,0.000124902,1.70E-05,3.45E-05,,,,,,,,,,,,,,,,,,,,,,,,,,,,,,,,,,,,,,,,,,,,,,,,,,,,,,
3.07E-05,1.06E-05,-5.17E-05,-2.10E-05,0.000227592,-2.58E-05,-9.23E-06,-4.52E-06,-4.47E-05,-1.02E-06,6.29E-05,-2.64E-05,-4.52E-05,5.08E-06,5.01E-05,2.26E-05,-1.29E-05,0.000162731,-0.00013548,-4.42E-05,4.60E-05,-3.32E-05,-2.95E-05,-7.47E-05,5.66E-05,2.05E-05,9.40E-05,0.000108806,3.09E-05,-5.98E-06,-1.10E-05,1.59E-05,1.34E-06,3.79E-05,-0.000100046,-1.93E-05,-1.69E-05,5.16E-05,1.56E-05,2.74E-05,-2.52E-05,4.89E-05,6.30E-05,-9.54E-05,-1.01E-06,1.20E-04,1.78E-06,-2.79E-05,-1.41E-05,-1.07E-05,-7.87E-05,-6.17E-05,0.000129227,1.27E-05,3.26E-05,,,,,,,,,,,,,,,,,,,,,,,,,,,,,,,,,,,,,,,,,,,,,,,,,,,,,,
1.75E-05,1.52E-05,-4.61E-05,-2.32E-05,0.000238884,-2.68E-05,-8.07E-06,-6.80E-06,-4.26E-05,-7.43E-07,6.21E-05,-1.68E-05,-5.00E-05,3.30E-06,5.42E-05,2.66E-05,-9.22E-06,0.000226313,-0.000131315,-4.54E-05,4.08E-05,-2.23E-05,-5.22E-05,-8.83E-05,5.67E-05,2.45E-05,9.31E-05,0.000113294,3.16E-05,-8.10E-06,-9.12E-06,1.54E-05,2.76E-06,3.50E-05,-0.000104219,-1.90E-05,-1.77E-05,5.08E-05,1.82E-05,2.05E-05,-2.71E-05,5.46E-05,6.11E-05,-6.92E-05,3.49E-06,1.24E-04,5.54E-07,-3.34E-05,-9.80E-07,-1.67E-05,-7.25E-05,-6.81E-05,0.000133418,8.28E-06,3.09E-05,,,,,,,,,,,,,,,,,,,,,,,,,,,,,,,,,,,,,,,,,,,,,,,,,,,,,,
2.75E-06,1.87E-05,-4.09E-05,-2.55E-05,0.000243065,-2.73E-05,-4.37E-06,-9.00E-06,-3.98E-05,-1.04E-06,6.18E-05,-5.66E-06,-5.38E-05,2.41E-06,5.81E-05,3.02E-05,-5.91E-06,0.000296438,-0.000126349,-4.51E-05,3.39E-05,-1.32E-05,-7.58E-05,-0.000101502,5.69E-05,2.94E-05,9.26E-05,0.000117633,3.09E-05,-9.16E-06,-7.40E-06,1.43E-05,4.96E-06,3.21E-05,-0.000108446,-1.81E-05,-1.68E-05,4.93E-05,2.07E-05,1.36E-05,-3.04E-05,6.06E-05,5.99E-05,-4.39E-05,8.28E-06,1.28E-04,-1.31E-06,-3.92E-05,1.07E-05,-2.22E-05,-6.64E-05,-7.29E-05,0.000137387,4.02E-06,2.95E-05,,,,,,,,,,,,,,,,,,,,,,,,,,,,,,,,,,,,,,,,,,,,,,,,,,,,,,
-1.26E-05,2.07E-05,-3.65E-05,-2.79E-05,0.000238331,-2.73E-05,1.92E-06,-1.10E-05,-3.65E-05,-2.03E-06,6.20E-05,6.04E-06,-5.63E-05,2.30E-06,6.17E-05,3.29E-05,-3.07E-06,0.00037018,-0.000120437,-4.35E-05,2.54E-05,-5.63E-06,-9.84E-05,-0.000113986,5.71E-05,3.54E-05,9.22E-05,0.000121446,2.89E-05,-9.33E-06,-5.92E-06,1.26E-05,8.00E-06,2.90E-05,-0.0001125,-1.67E-05,-1.44E-05,4.72E-05,2.30E-05,6.77E-06,-3.50E-05,6.62E-05,5.95E-05,-2.11E-05,1.29E-05,1.30E-04,-3.56E-06,-4.48E-05,2.02E-05,-2.74E-05,-6.03E-05,-7.58E-05,0.000141008,2.19E-07,2.85E-05,,,,,,,,,,,,,,,,,,,,,,,,,,,,,,,,,,,,,,,,,,,,,,,,,,,,,,
-2.72E-05,2.11E-05,-3.30E-05,-3.03E-05,2.23E-04,-2.70E-05,1.06E-05,-1.27E-05,-3.32E-05,-3.70E-06,6.26E-05,1.71E-05,-5.70E-05,2.74E-06,6.50E-05,3.43E-05,-9.22E-07,0.000443998,-0.000113566,-4.06E-05,1.58E-05,8.77E-07,-0.000118553,-0.000125623,5.74E-05,4.26E-05,9.18E-05,0.000124436,2.56E-05,-8.83E-06,-4.78E-06,1.05E-05,1.19E-05,2.60E-05,-0.000116137,-1.50E-05,-1.08E-05,4.48E-05,2.49E-05,-8.36E-08,-4.08E-05,7.11E-05,5.99E-05,-1.73E-06,1.70E-05,1.30E-04,-5.91E-06,-4.98E-05,2.71E-05,-3.26E-05,-5.43E-05,-7.68E-05,0.000144122,-2.94E-06,2.77E-05,,,,,,,,,,,,,,,,,,,,,,,,,,,,,,,,,,,,,,,,,,,,,,,,,,,,,,
-4.01E-05,1.97E-05,-3.03E-05,-3.26E-05,1.97E-04,-2.64E-05,2.13E-05,-1.39E-05,-3.01E-05,-5.91E-06,6.33E-05,2.64E-05,-5.61E-05,3.46E-06,6.80E-05,3.42E-05,1.30E-07,0.000513974,-0.000105905,-3.67E-05,5.14E-06,6.72E-06,-0.000134626,-0.000136243,5.76E-05,5.09E-05,9.13E-05,0.000126408,2.13E-05,-7.92E-06,-4.08E-06,7.93E-06,1.67E-05,2.29E-05,-0.000119117,-1.29E-05,-6.60E-06,4.21E-05,2.65E-05,-6.94E-06,-4.77E-05,7.48E-05,6.09E-05,1.36E-05,2.02E-05,1.29E-04,-7.98E-06,-5.35E-05,3.11E-05,-3.79E-05,-4.84E-05,-7.59E-05,0.000146542,-5.42E-06,2.74E-05,,,,,,,,,,,,,,,,,,,,,,,,,,,,,,,,,,,,,,,,,,,,,,,,,,,,,,
-5.04E-05,1.66E-05,-2.83E-05,-3.47E-05,1.61E-04,-2.56E-05,3.34E-05,-1.46E-05,-2.74E-05,-8.43E-06,6.36E-05,3.26E-05,-5.33E-05,4.20E-06,7.08E-05,3.25E-05,-4.83E-07,0.000576095,-9.78E-05,-3.22E-05,-6.01E-06,1.22E-05,-0.00014548,-0.000145691,5.77E-05,6.02E-05,9.06E-05,0.000127287,1.62E-05,-6.85E-06,-3.93E-06,5.10E-06,2.24E-05,1.99E-05,-0.000121236,-1.07E-05,-2.37E-06,3.94E-05,2.79E-05,-1.38E-05,-5.51E-05,7.70E-05,6.21E-05,2.47E-05,2.23E-05,1.26E-04,-9.47E-06,-5.54E-05,3.20E-05,-4.33E-05,-4.28E-05,-7.34E-05,0.000148067,-7.29E-06,2.75E-05,,,,,,,,,,,,,,,,,,,,,,,,,,,,,,,,,,,,,,,,,,,,,,,,,,,,,,
-5.75E-05,1.18E-05,-2.62E-05,-3.66E-05,0.000113901,-2.47E-05,4.64E-05,-1.46E-05,-2.52E-05,-1.09E-05,6.34E-05,3.48E-05,-4.89E-05,4.71E-06,7.33E-05,2.93E-05,-3.44E-06,0.00062655,-8.98E-05,-2.73E-05,-1.73E-05,1.75E-05,-1.50E-04,-0.000153847,5.77E-05,7.01E-05,8.97E-05,0.000127104,1.09E-05,-5.87E-06,-4.42E-06,2.04E-06,2.86E-05,1.70E-05,-0.000122346,-8.32E-06,1.24E-06,3.67E-05,2.92E-05,-2.05E-05,-6.26E-05,7.75E-05,6.31E-05,3.18E-05,2.32E-05,1.22E-04,-1.01E-05,-5.46E-05,2.99E-05,-4.86E-05,-3.74E-05,-6.95E-05,0.0001485,-8.84E-06,2.81E-05,,,,,,,,,,,,,,,,,,,,,,,,,,,,,,,,,,,,,,,,,,,,,,,,,,,,,,
-6.10E-05,5.80E-06,-2.35E-05,-3.81E-05,5.91E-05,-2.39E-05,5.94E-05,-1.41E-05,-2.37E-05,-1.31E-05,6.22E-05,3.21E-05,-4.30E-05,4.85E-06,7.57E-05,2.48E-05,-9.42E-06,0.000662016,-8.26E-05,-2.23E-05,-2.82E-05,2.28E-05,-1.49E-04,-0.000160649,5.77E-05,8.03E-05,8.85E-05,0.000125973,5.75E-06,-5.15E-06,-5.68E-06,-1.20E-06,3.54E-05,1.43E-05,-0.000122372,-5.87E-06,3.66E-06,3.42E-05,3.06E-05,-2.68E-05,-6.96E-05,7.61E-05,6.34E-05,3.56E-05,2.29E-05,1.18E-04,-9.79E-06,-5.03E-05,2.53E-05,-5.37E-05,-3.23E-05,-6.47E-05,0.000147667,-1.04E-05,2.91E-05,,,,,,,,,,,,,,,,,,,,,,,,,,,,,,,,,,,,,,,,,,,,,,,,,,,,,,
-6.13E-05,-1.24E-06,-1.91E-05,-3.94E-05,-1.28E-06,-2.31E-05,7.17E-05,-1.31E-05,-2.27E-05,-1.46E-05,5.99E-05,2.43E-05,-3.61E-05,4.56E-06,7.80E-05,1.93E-05,-1.90E-05,0.0006799,-7.67E-05,-1.77E-05,-3.83E-05,2.80E-05,-1.42E-04,-0.000166104,5.76E-05,9.03E-05,8.72E-05,0.000124061,1.13E-06,-4.80E-06,-7.82E-06,-4.58E-06,4.23E-05,1.20E-05,-0.000121315,-3.42E-06,4.46E-06,3.20E-05,3.22E-05,-3.28E-05,-7.56E-05,7.29E-05,6.28E-05,3.67E-05,2.15E-05,1.14E-04,-8.48E-06,-4.19E-05,1.87E-05,-5.81E-05,-2.76E-05,-5.91E-05,0.000145439,-1.25E-05,3.07E-05,,,,,,,,,,,,,,,,,,,,,,,,,,,,,,,,,,,,,,,,,,,,,,,,,,,,,,
-5.88E-05,-8.87E-06,-1.21E-05,-4.03E-05,-6.41E-05,-2.26E-05,8.29E-05,-1.18E-05,-2.22E-05,-1.51E-05,5.66E-05,1.14E-05,-2.87E-05,3.88E-06,8.03E-05,1.35E-05,-3.25E-05,0.000678526,-7.26E-05,-1.36E-05,-4.72E-05,3.32E-05,-1.31E-04,-0.000170297,5.77E-05,9.98E-05,8.58E-05,0.000121565,-2.55E-06,-4.88E-06,-1.10E-05,-8.08E-06,4.91E-05,1.02E-05,-0.000119253,-1.01E-06,3.42E-06,3.02E-05,3.41E-05,-3.80E-05,-8.00E-05,6.82E-05,6.07E-05,3.60E-05,1.94E-05,1.10E-04,-6.32E-06,-2.87E-05,1.10E-05,-6.14E-05,-2.33E-05,-5.32E-05,0.000141754,-1.57E-05,3.25E-05,,,,,,,,,,,,,,,,,,,,,,,,,,,,,,,,,,,,,,,,,,,,,,,,,,,,,,
-5.43E-05,-1.67E-05,-1.27E-06,-4.08E-05,-0.000125986,-2.23E-05,9.23E-05,-1.05E-05,-2.20E-05,-1.45E-05,5.24E-05,-6.05E-06,-2.14E-05,2.97E-06,8.24E-05,7.81E-06,-4.97E-05,0.000657247,-7.06E-05,-1.03E-05,-5.45E-05,3.83E-05,-1.17E-04,-0.000173386,5.81E-05,0.000108635,8.45E-05,0.000118681,-4.96E-06,-5.33E-06,-1.53E-05,-1.17E-05,5.53E-05,8.96E-06,-0.000116334,1.26E-06,5.81E-07,2.87E-05,3.62E-05,-4.23E-05,-8.26E-05,6.22E-05,5.72E-05,3.44E-05,1.68E-05,1.06E-04,-3.60E-06,-1.03E-05,3.18E-06,-6.33E-05,-1.92E-05,-4.72E-05,0.000136631,-2.03E-05,3.45E-05,,,,,,,,,,,,,,,,,,,,,,,,,,,,,,,,,,,,,,,,,,,,,,,,,,,,,,
-4.88E-05,-2.43E-05,1.42E-05,-4.11E-05,-0.00018347,-2.22E-05,9.95E-05,-9.65E-06,-2.18E-05,-1.28E-05,4.75E-05,-2.71E-05,-1.47E-05,2.03E-06,8.44E-05,2.90E-06,-6.99E-05,0.000616484,-7.09E-05,-7.88E-06,-5.98E-05,4.32E-05,-1.01E-04,-0.000175584,5.88E-05,0.00011658,8.34E-05,0.000115588,-5.88E-06,-6.06E-06,-2.09E-05,-1.53E-05,6.06E-05,8.31E-06,-0.000112763,3.31E-06,-3.74E-06,2.75E-05,3.87E-05,-4.55E-05,-8.31E-05,5.54E-05,5.22E-05,3.25E-05,1.41E-05,1.03E-04,-6.56E-07,1.34E-05,-3.83E-06,-6.35E-05,-1.56E-05,-4.14E-05,1.30E-04,-2.66E-05,3.64E-05,,,,,,,,,,,,,,,,,,,,,,,,,,,,,,,,,,,,,,,,,,,,,,,,,,,,,,
-4.33E-05,-3.14E-05,3.51E-05,-4.12E-05,-0.000233395,-2.23E-05,0.000104209,-9.46E-06,-2.16E-05,-1.00E-05,4.25E-05,-5.07E-05,-9.24E-06,1.30E-06,8.63E-05,-7.49E-07,-9.19E-05,0.000557685,-7.32E-05,-6.32E-06,-6.30E-05,4.80E-05,-8.54E-05,-0.000177136,6.00E-05,0.000123662,8.27E-05,0.000112436,-5.17E-06,-6.92E-06,-2.78E-05,-1.89E-05,6.46E-05,8.25E-06,-0.000108787,5.06E-06,-8.98E-06,2.64E-05,4.12E-05,-4.76E-05,-8.14E-05,4.81E-05,4.60E-05,3.10E-05,1.15E-05,1.01E-04,2.12E-06,4.20E-05,-9.09E-06,-6.18E-05,-1.22E-05,-3.60E-05,1.23E-04,-3.48E-05,3.78E-05,,,,,,,,,,,,,,,,,,,,,,,,,,,,,,,,,,,,,,,,,,,,,,,,,,,,,,
-3.85E-05,-3.77E-05,6.18E-05,-4.11E-05,-0.000273137,-2.25E-05,0.000106143,-1.03E-05,-2.10E-05,-6.28E-06,3.78E-05,-7.54E-05,-5.46E-06,9.88E-07,8.79E-05,-2.77E-06,-1.13E-04,4.83E-04,-7.69E-05,-5.56E-06,-6.41E-05,5.25E-05,-7.23E-05,-0.000178292,6.18E-05,0.000130012,8.25E-05,0.000109327,-2.82E-06,-7.76E-06,-3.62E-05,-2.23E-05,6.70E-05,8.73E-06,-0.000104676,6.45E-06,-1.44E-05,2.54E-05,4.35E-05,-4.86E-05,-7.78E-05,4.07E-05,3.89E-05,3.02E-05,9.46E-06,9.98E-05,4.35E-06,7.49E-05,-1.19E-05,-5.84E-05,-9.06E-06,-3.14E-05,1.14E-04,-4.49E-05,3.87E-05,,,,,,,,,,,,,,,,,,,,,,,,,,,,,,,,,,,,,,,,,,,,,,,,,,,,,,
-3.51E-05,-4.30E-05,9.44E-05,-4.11E-05,-0.000300822,-2.26E-05,0.000105212,-1.24E-05,-2.00E-05,-1.76E-06,3.38E-05,-9.98E-05,-3.62E-06,1.27E-06,8.93E-05,-2.96E-06,-1.32E-04,3.96E-04,-8.14E-05,-5.44E-06,-6.32E-05,5.68E-05,-6.24E-05,-0.000179274,6.41E-05,0.000135871,8.27E-05,0.000106316,1.09E-06,-8.42E-06,-4.60E-05,-2.55E-05,6.76E-05,9.65E-06,-0.000100703,7.41E-06,-1.92E-05,2.41E-05,4.55E-05,-4.86E-05,-7.24E-05,3.38E-05,3.13E-05,3.04E-05,8.16E-06,9.90E-05,5.78E-06,0.000110859,-1.17E-05,-5.36E-05,-6.17E-06,-2.76E-05,1.05E-04,-5.65E-05,3.87E-05,,,,,,,,,,,,,,,,,,,,,,,,,,,,,,,,,,,,,,,,,,,,,,,,,,,,,,
-3.34E-05,-4.73E-05,0.000132474,-4.11E-05,-0.000315464,-2.25E-05,0.000101396,-1.58E-05,-1.85E-05,3.25E-06,3.10E-05,-1.23E-04,-3.74E-06,2.24E-06,9.04E-05,-1.33E-06,-1.44E-04,3.00E-04,-8.59E-05,-5.67E-06,-6.06E-05,6.08E-05,-5.64E-05,-0.000180249,6.69E-05,1.42E-04,8.35E-05,0.000103398,6.35E-06,-8.80E-06,-5.72E-05,-2.81E-05,6.62E-05,1.09E-05,-9.71E-05,7.95E-06,-2.27E-05,2.24E-05,4.68E-05,-4.78E-05,-6.57E-05,2.75E-05,2.36E-05,3.15E-05,7.77E-06,9.85E-05,6.23E-06,0.000148187,-8.56E-06,-4.78E-05,-3.53E-06,-2.50E-05,9.57E-05,-6.90E-05,3.79E-05,,,,,,,,,,,,,,,,,,,,,,,,,,,,,,,,,,,,,,,,,,,,,,,,,,,,,,
-3.32E-05,-5.05E-05,0.000175097,-4.13E-05,-0.000316996,-2.22E-05,9.48E-05,-2.07E-05,-1.67E-05,8.48E-06,2.96E-05,-1.43E-04,-5.57E-06,3.89E-06,9.10E-05,1.94E-06,-0.000145842,0.000199789,-8.96E-05,-5.93E-06,-5.66E-05,6.45E-05,-5.41E-05,-0.000181317,7.00E-05,1.47E-04,8.48E-05,0.00010051,1.27E-05,-8.84E-06,-6.98E-05,-3.01E-05,6.30E-05,1.23E-05,-9.41E-05,8.11E-06,-2.42E-05,2.00E-05,4.74E-05,-4.64E-05,-5.82E-05,2.23E-05,1.63E-05,3.35E-05,8.34E-06,9.79E-05,5.70E-06,0.000184848,-2.53E-06,-4.20E-05,-1.13E-06,-2.36E-05,8.65E-05,-8.18E-05,3.62E-05,,,,,,,,,,,,,,,,,,,,,,,,,,,,,,,,,,,,,,,,,,,,,,,,,,,,,,
-3.43E-05,-5.28E-05,0.000220816,-4.17E-05,-0.000306224,-2.15E-05,8.56E-05,-2.68E-05,-1.46E-05,1.37E-05,2.96E-05,-1.60E-04,-8.51E-06,6.11E-06,9.12E-05,6.50E-06,-0.00013398,9.84E-05,-9.18E-05,-5.78E-06,-5.17E-05,6.78E-05,-5.50E-05,-0.000182494,7.33E-05,1.54E-04,8.64E-05,9.75E-05,1.96E-05,-8.56E-06,-8.34E-05,-3.11E-05,5.81E-05,1.38E-05,-9.19E-05,7.99E-06,-2.33E-05,1.69E-05,4.71E-05,-4.47E-05,-5.02E-05,1.83E-05,9.60E-06,3.61E-05,9.83E-06,9.69E-05,4.32E-06,0.000218524,5.83E-06,-3.70E-05,1.01E-06,-2.34E-05,7.76E-05,-9.42E-05,3.38E-05,,,,,,,,,,,,,,,,,,,,,,,,,,,,,,,,,,,,,,,,,,,,,,,,,,,,,,
-3.62E-05,-5.41E-05,0.000267699,-4.24E-05,-2.85E-04,-2.03E-05,7.40E-05,-3.40E-05,-1.25E-05,1.85E-05,3.11E-05,-1.74E-04,-1.16E-05,8.70E-06,9.10E-05,1.19E-05,-0.000104922,1.57E-07,-9.19E-05,-4.78E-06,-4.65E-05,7.07E-05,-5.81E-05,-0.000183717,7.64E-05,1.61E-04,8.85E-05,9.44E-05,2.68E-05,-8.02E-06,-9.79E-05,-3.09E-05,5.16E-05,1.52E-05,-9.04E-05,7.72E-06,-1.99E-05,1.30E-05,4.59E-05,-4.31E-05,-4.23E-05,1.57E-05,3.63E-06,3.90E-05,1.21E-05,9.52E-05,2.35E-06,0.000246776,1.58E-05,-3.38E-05,2.89E-06,-2.44E-05,6.92E-05,-0.000105392,3.10E-05,,,,,,,,,,,,,,,,,,,,,,,,,,,,,,,,,,,,,,,,,,,,,,,,,,,,,,
-3.82E-05,-5.48E-05,0.0003134,-4.35E-05,-2.54E-04,-1.86E-05,6.06E-05,-4.18E-05,-1.05E-05,2.27E-05,3.36E-05,-1.84E-04,-1.38E-05,1.14E-05,9.04E-05,1.76E-05,-5.60E-05,-9.15E-05,-8.96E-05,-2.42E-06,-4.13E-05,7.31E-05,-6.25E-05,-0.000184854,7.90E-05,1.69E-04,9.07E-05,9.08E-05,3.36E-05,-7.33E-06,-1.13E-04,-2.95E-05,4.40E-05,1.64E-05,-8.97E-05,7.49E-06,-1.43E-05,8.43E-06,4.40E-05,-4.18E-05,-3.51E-05,1.45E-05,-1.65E-06,4.22E-05,1.49E-05,9.25E-05,1.55E-07,0.000267231,2.64E-05,-3.35E-05,4.52E-06,-2.66E-05,6.14E-05,-0.000114697,2.81E-05,,,,,,,,,,,,,,,,,,,,,,,,,,,,,,,,,,,,,,,,,,,,,,,,,,,,,,
-3.97E-05,-5.49E-05,0.000355267,-4.49E-05,-2.18E-04,-1.64E-05,4.58E-05,-4.99E-05,-8.90E-06,2.61E-05,3.69E-05,-1.91E-04,-1.36E-05,1.39E-05,8.93E-05,2.32E-05,1.46E-05,-0.000173822,-8.47E-05,1.79E-06,-3.66E-05,7.48E-05,-6.71E-05,-0.000185718,8.09E-05,1.77E-04,9.32E-05,8.68E-05,3.97E-05,-6.64E-06,-1.29E-04,-2.68E-05,3.57E-05,1.74E-05,-8.96E-05,7.48E-06,-7.02E-06,3.30E-06,4.16E-05,-4.10E-05,-2.87E-05,1.46E-05,-6.38E-06,4.53E-05,1.79E-05,8.88E-05,-1.89E-06,0.000277781,3.68E-05,-3.69E-05,5.95E-06,-2.96E-05,5.43E-05,-0.00012158,2.55E-05,,,,,,,,,,,,,,,,,,,,,,,,,,,,,,,,,,,,,,,,,,,,,,,,,,,,,,
-4.05E-05,-5.46E-05,0.000390502,-4.66E-05,-1.78E-04,-1.37E-05,3.01E-05,-5.79E-05,-7.78E-06,2.84E-05,4.04E-05,-1.95E-04,-9.56E-06,1.60E-05,8.78E-05,2.81E-05,0.000106844,-0.000244684,-7.74E-05,8.31E-06,-3.25E-05,7.59E-05,-7.11E-05,-0.000186089,8.18E-05,1.87E-04,9.59E-05,8.22E-05,4.46E-05,-6.05E-06,-1.44E-04,-2.28E-05,2.72E-05,1.81E-05,-8.98E-05,7.89E-06,1.34E-06,-2.11E-06,3.90E-05,-4.09E-05,-2.36E-05,1.58E-05,-1.08E-05,4.84E-05,2.09E-05,8.39E-05,-3.41E-06,0.000276778,4.61E-05,-4.49E-05,7.28E-06,-3.32E-05,4.77E-05,-0.000125679,2.35E-05,,,,,,,,,,,,,,,,,,,,,,,,,,,,,,,,,,,,,,,,,,,,,,,,,,,,,,
-4.03E-05,-5.41E-05,0.000416341,-4.86E-05,-1.36E-04,-1.07E-05,1.43E-05,-6.52E-05,-7.25E-06,2.93E-05,4.37E-05,-1.98E-04,-3.33E-07,1.74E-05,8.61E-05,3.21E-05,0.000219367,-0.000302886,-6.81E-05,1.75E-05,-2.93E-05,7.61E-05,-7.40E-05,-0.000185738,8.16E-05,1.97E-04,9.88E-05,7.70E-05,4.78E-05,-5.63E-06,-1.59E-04,-1.78E-05,1.88E-05,1.85E-05,-9.02E-05,8.84E-06,9.92E-06,-7.47E-06,3.64E-05,-4.15E-05,-1.97E-05,1.78E-05,-1.52E-05,5.14E-05,2.34E-05,7.81E-05,-4.12E-06,2.63E-04,5.39E-05,-5.76E-05,8.64E-06,-3.69E-05,4.15E-05,-0.000126831,2.22E-05,,,,,,,,,,,,,,,,,,,,,,,,,,,,,,,,,,,,,,,,,,,,,,,,,,,,,,
-3.92E-05,-5.35E-05,0.000430267,-5.08E-05,-9.57E-05,-7.36E-06,-1.00E-06,-7.16E-05,-7.32E-06,2.89E-05,4.62E-05,-1.99E-04,1.52E-05,1.79E-05,8.42E-05,3.50E-05,0.000348796,-0.000348023,-5.71E-05,2.95E-05,-2.70E-05,7.55E-05,-7.55E-05,-0.000184452,8.01E-05,2.07E-04,1.02E-04,7.14E-05,4.93E-05,-5.34E-06,-1.73E-04,-1.20E-05,1.10E-05,1.85E-05,-9.04E-05,1.04E-05,1.79E-05,-1.25E-05,3.41E-05,-4.29E-05,-1.70E-05,2.02E-05,-1.97E-05,5.44E-05,2.52E-05,7.17E-05,-3.86E-06,2.37E-04,5.98E-05,-7.50E-05,1.02E-05,-4.05E-05,3.55E-05,-1.25E-04,2.18E-05,,,,,,,,,,,,,,,,,,,,,,,,,,,,,,,,,,,,,,,,,,,,,,,,,,,,,,
-3.75E-05,-5.29E-05,0.000430222,-5.30E-05,-5.76E-05,-3.92E-06,-1.52E-05,-7.68E-05,-7.89E-06,2.70E-05,4.75E-05,-1.99E-04,3.79E-05,1.74E-05,8.21E-05,3.66E-05,0.000489974,-0.000380428,-4.52E-05,4.44E-05,-2.55E-05,7.40E-05,-7.54E-05,-0.000182052,7.75E-05,2.18E-04,1.05E-04,6.53E-05,4.88E-05,-5.04E-06,-0.000186682,-6.00E-06,4.09E-06,1.80E-05,-9.01E-05,1.27E-05,2.45E-05,-1.67E-05,3.25E-05,-4.50E-05,-1.56E-05,2.29E-05,-2.44E-05,5.74E-05,2.61E-05,6.50E-05,-2.63E-06,1.98E-04,6.37E-05,-9.63E-05,1.20E-05,-4.37E-05,2.94E-05,-1.21E-04,2.21E-05,,,,,,,,,,,,,,,,,,,,,,,,,,,,,,,,,,,,,,,,,,,,,,,,,,,,,,
-3.55E-05,-5.25E-05,0.000414811,-5.54E-05,-2.34E-05,-5.09E-07,-2.76E-05,-8.06E-05,-8.78E-06,2.35E-05,4.72E-05,-1.98E-04,6.79E-05,1.60E-05,8.00E-05,3.69E-05,0.000636127,-0.000401041,-3.28E-05,6.17E-05,-2.46E-05,7.16E-05,-7.37E-05,-0.000178418,7.36E-05,2.29E-04,1.09E-04,5.91E-05,4.63E-05,-4.46E-06,-0.000198725,-1.67E-07,-1.71E-06,1.69E-05,-8.89E-05,1.54E-05,2.92E-05,-2.01E-05,3.17E-05,-4.78E-05,-1.50E-05,2.54E-05,-2.93E-05,6.07E-05,2.59E-05,5.85E-05,-5.93E-07,1.49E-04,6.59E-05,-1.20E-04,1.44E-05,-4.62E-05,2.30E-05,-1.14E-04,2.30E-05,,,,,,,,,,,,,,,,,,,,,,,,,,,,,,,,,,,,,,,,,,,,,,,,,,,,,,
-3.38E-05,-5.23E-05,0.000383467,-5.76E-05,6.09E-06,2.77E-06,-3.78E-05,-8.28E-05,-9.77E-06,1.86E-05,4.52E-05,-1.98E-04,0.000104726,1.38E-05,7.79E-05,3.62E-05,0.000779254,-0.00041124,-2.05E-05,8.09E-05,-2.41E-05,6.84E-05,-7.08E-05,-0.000173497,6.88E-05,2.39E-04,1.13E-04,5.29E-05,4.19E-05,-3.24E-06,-0.000209278,5.01E-06,-6.20E-06,1.53E-05,-8.67E-05,1.86E-05,3.16E-05,-2.23E-05,3.19E-05,-5.09E-05,-1.52E-05,2.77E-05,-3.41E-05,6.42E-05,2.45E-05,5.26E-05,1.93E-06,9.07E-05,6.68E-05,-1.45E-04,1.73E-05,-4.78E-05,1.60E-05,-1.05E-04,2.41E-05,,,,,,,,,,,,,,,,,,,,,,,,,,,,,,,,,,,,,,,,,,,,,,,,,,,,,,
-3.25E-05,-5.24E-05,3.37E-04,-5.98E-05,3.06E-05,5.84E-06,-4.55E-05,-8.35E-05,-1.06E-05,1.25E-05,4.14E-05,-1.97E-04,0.000147172,1.10E-05,7.59E-05,3.45E-05,0.00091067,-0.000412664,-8.86E-06,0.000100894,-2.38E-05,6.45E-05,-6.70E-05,-0.000167309,6.31E-05,2.49E-04,1.17E-04,4.69E-05,3.58E-05,-9.22E-07,-0.000218181,9.14E-06,-9.31E-06,1.29E-05,-8.33E-05,2.18E-05,3.18E-05,-2.34E-05,3.30E-05,-5.43E-05,-1.59E-05,2.95E-05,-3.86E-05,6.81E-05,2.20E-05,4.77E-05,4.49E-06,2.69E-05,6.70E-05,-1.68E-04,2.07E-05,-4.87E-05,8.39E-06,-9.43E-05,2.53E-05,,,,,,,,,,,,,,,,,,,,,,,,,,,,,,,,,,,,,,,,,,,,,,,,,,,,,,
-3.19E-05,-5.29E-05,2.75E-04,-6.18E-05,5.01E-05,8.67E-06,-5.06E-05,-8.29E-05,-1.10E-05,5.40E-06,3.57E-05,-1.96E-04,0.000193302,7.86E-06,7.41E-05,3.21E-05,0.001021666,-0.000407046,1.85E-06,0.000120271,-2.34E-05,6.01E-05,-6.30E-05,-0.000159952,5.69E-05,2.59E-04,1.21E-04,4.13E-05,2.82E-05,2.97E-06,-0.000225324,1.20E-05,-1.10E-05,9.88E-06,-7.87E-05,2.47E-05,2.98E-05,-2.33E-05,3.50E-05,-5.78E-05,-1.70E-05,3.09E-05,-4.24E-05,7.23E-05,1.85E-05,4.42E-05,6.58E-06,-3.95E-05,6.68E-05,-1.86E-04,2.47E-05,-4.88E-05,3.66E-08,-8.28E-05,2.61E-05,,,,,,,,,,,,,,,,,,,,,,,,,,,,,,,,,,,,,,,,,,,,,,,,,,,,,,
-3.19E-05,-5.37E-05,0.000202311,-6.35E-05,6.50E-05,1.13E-05,-5.32E-05,-8.11E-05,-1.08E-05,-2.41E-06,2.83E-05,-1.94E-04,0.000240509,4.68E-06,7.24E-05,2.93E-05,0.001104219,-0.000396066,1.14E-05,0.000137384,-2.28E-05,5.53E-05,-5.92E-05,-0.000151584,5.03E-05,2.68E-04,1.25E-04,3.62E-05,1.94E-05,8.86E-06,-0.000230639,1.37E-05,-1.11E-05,6.15E-06,-7.29E-05,2.70E-05,2.62E-05,-2.22E-05,3.79E-05,-6.11E-05,-1.86E-05,3.18E-05,-4.48E-05,7.66E-05,1.42E-05,4.23E-05,7.71E-06,-0.00010501,6.67E-05,-0.000196958,2.90E-05,-4.86E-05,-9.00E-06,-7.07E-05,2.63E-05,,,,,,,,,,,,,,,,,,,,,,,,,,,,,,,,,,,,,,,,,,,,,,,,,,,,,,
-3.23E-05,-5.50E-05,0.000120297,-6.51E-05,7.60E-05,1.39E-05,-5.38E-05,-7.82E-05,-9.92E-06,-1.05E-05,1.96E-05,-1.92E-04,0.000285672,1.71E-06,7.09E-05,2.64E-05,0.001151687,-0.000381247,1.98E-05,0.0001504,-2.17E-05,5.05E-05,-5.64E-05,-0.000142415,4.35E-05,2.76E-04,1.29E-04,3.17E-05,9.91E-06,1.71E-05,-0.000234088,1.45E-05,-9.81E-06,1.81E-06,-6.62E-05,2.84E-05,2.15E-05,-2.03E-05,4.14E-05,-6.43E-05,-2.06E-05,3.25E-05,-4.56E-05,8.10E-05,9.59E-06,4.21E-05,7.45E-06,-0.000166328,6.67E-05,-0.000198169,3.36E-05,-4.80E-05,-1.86E-05,-5.84E-05,2.56E-05,,,,,,,,,,,,,,,,,,,,,,,,,,,,,,,,,,,,,,,,,,,,,,,,,,,,,,
-3.26E-05,-5.66E-05,3.30E-05,-6.64E-05,8.36E-05,1.66E-05,-5.29E-05,-7.46E-05,-8.22E-06,-1.86E-05,9.79E-06,-1.88E-04,0.000325377,-8.29E-07,6.95E-05,2.35E-05,0.001159406,-0.000363893,2.70E-05,1.57E-04,-2.02E-05,4.59E-05,-5.49E-05,-0.000132682,3.68E-05,0.000284835,1.32E-04,2.77E-05,8.42E-08,2.77E-05,-0.000235645,1.51E-05,-7.02E-06,-2.97E-06,-5.89E-05,2.84E-05,1.64E-05,-1.77E-05,4.53E-05,-6.69E-05,-2.34E-05,3.30E-05,-4.43E-05,8.53E-05,4.92E-06,4.37E-05,5.53E-06,-0.000220483,6.70E-05,-0.000187266,3.82E-05,-4.75E-05,-2.84E-05,-4.66E-05,2.39E-05,,,,,,,,,,,,,,,,,,,,,,,,,,,,,,,,,,,,,,,,,,,,,,,,,,,,,,
-3.25E-05,-5.86E-05,-5.55E-05,-6.75E-05,8.88E-05,1.95E-05,-5.12E-05,-7.03E-05,-5.70E-06,-2.61E-05,-5.74E-07,-1.83E-04,0.000356192,-2.82E-06,6.84E-05,2.08E-05,0.001125136,-0.000345058,3.32E-05,1.57E-04,-1.84E-05,4.16E-05,-5.52E-05,-0.000122634,3.03E-05,0.000293022,1.35E-04,2.44E-05,-9.42E-06,4.07E-05,-0.000235277,1.62E-05,-2.81E-06,-7.91E-06,-5.12E-05,2.68E-05,1.15E-05,-1.48E-05,4.93E-05,-6.91E-05,-2.70E-05,3.34E-05,-4.07E-05,8.90E-05,6.27E-07,4.68E-05,1.86E-06,-0.000265092,6.71E-05,-0.000162675,4.25E-05,-4.71E-05,-3.81E-05,-3.55E-05,2.13E-05,,,,,,,,,,,,,,,,,,,,,,,,,,,,,,,,,,,,,,,,,,,,,,,,,,,,,,
-3.16E-05,-6.07E-05,-0.000141368,-6.85E-05,9.23E-05,2.29E-05,-4.97E-05,-6.56E-05,-2.35E-06,-3.29E-05,-1.10E-05,-1.76E-04,0.000374968,-4.19E-06,6.76E-05,1.85E-05,0.001049284,-0.000325559,3.88E-05,1.47E-04,-1.63E-05,3.79E-05,-5.72E-05,-0.000112506,2.40E-05,0.000301138,1.37E-04,2.17E-05,-1.78E-05,5.56E-05,-2.33E-04,1.92E-05,2.72E-06,-1.26E-05,-4.36E-05,2.36E-05,7.33E-06,-1.17E-05,5.31E-05,-7.08E-05,-3.18E-05,3.40E-05,-3.48E-05,9.20E-05,-2.92E-06,5.11E-05,-3.48E-06,-0.000298533,6.68E-05,-0.000123655,4.65E-05,-4.70E-05,-4.74E-05,-2.57E-05,1.78E-05,,,,,,,,,,,,,,,,,,,,,,,,,,,,,,,,,,,,,,,,,,,,,,,,,,,,,,
-2.95E-05,-6.30E-05,-0.0002207,-6.93E-05,9.47E-05,2.69E-05,-4.91E-05,-6.05E-05,1.83E-06,-3.85E-05,-2.10E-05,-1.69E-04,0.000379146,-4.99E-06,6.70E-05,1.65E-05,0.000934901,-0.000305997,4.38E-05,1.28E-04,-1.41E-05,3.49E-05,-6.09E-05,-0.000102506,1.78E-05,0.000309299,1.38E-04,1.95E-05,-2.42E-05,7.17E-05,-2.29E-04,2.50E-05,9.37E-06,-1.66E-05,-3.64E-05,1.87E-05,4.39E-06,-8.60E-06,5.64E-05,-7.20E-05,-3.78E-05,3.48E-05,-2.69E-05,9.40E-05,-5.41E-06,5.62E-05,-1.02E-05,-0.000320031,6.57E-05,-7.04E-05,4.99E-05,-4.71E-05,-5.58E-05,-1.77E-05,1.36E-05,,,,,,,,,,,,,,,,,,,,,,,,,,,,,,,,,,,,,,,,,,,,,,,,,,,,,,
-2.62E-05,-6.50E-05,-0.000290287,-6.99E-05,9.66E-05,3.15E-05,-5.02E-05,-5.50E-05,6.90E-06,-4.29E-05,-3.01E-05,-1.59E-04,0.000367027,-5.31E-06,6.68E-05,1.48E-05,0.000787433,-0.000286801,4.84E-05,9.94E-05,-1.23E-05,3.24E-05,-6.59E-05,-9.28E-05,1.18E-05,0.000317595,1.39E-04,1.78E-05,-2.73E-05,8.80E-05,-2.22E-04,3.51E-05,1.69E-05,-1.93E-05,-2.99E-05,1.24E-05,2.85E-06,-5.69E-06,5.88E-05,-7.28E-05,-4.53E-05,3.59E-05,-1.74E-05,9.48E-05,-6.62E-06,6.17E-05,-1.79E-05,-0.000329677,6.35E-05,-4.18E-06,5.27E-05,-4.75E-05,-6.31E-05,-1.19E-05,9.02E-06,,,,,,,,,,,,,,,,,,,,,,,,,,,,,,,,,,,,,,,,,,,,,,,,,,,,,,
-2.19E-05,-6.67E-05,-0.000347608,-7.05E-05,9.84E-05,3.67E-05,-5.35E-05,-4.91E-05,1.29E-05,-4.60E-05,-3.80E-05,-1.49E-04,3.38E-04,-5.30E-06,6.69E-05,1.32E-05,6.14E-04,-0.000268272,5.30E-05,6.14E-05,-1.10E-05,3.06E-05,-7.15E-05,-8.35E-05,5.59E-06,0.000326072,1.39E-04,1.65E-05,-2.59E-05,0.00010319,-2.13E-04,5.03E-05,2.49E-05,-2.01E-05,-2.43E-05,4.92E-06,2.69E-06,-3.04E-06,6.01E-05,-7.33E-05,-5.41E-05,3.73E-05,-6.94E-06,9.42E-05,-6.47E-06,6.71E-05,-2.61E-05,-0.000328351,5.98E-05,7.29E-05,5.49E-05,-4.80E-05,-6.90E-05,-8.76E-06,4.33E-06,,,,,,,,,,,,,,,,,,,,,,,,,,,,,,,,,,,,,,,,,,,,,,,,,,,,,,
-1.69E-05,-6.77E-05,-0.00039101,-7.09E-05,0.000100209,4.25E-05,-5.94E-05,-4.28E-05,2.01E-05,-4.79E-05,-4.44E-05,-1.38E-04,2.93E-04,-5.11E-06,6.73E-05,1.17E-05,0.000424105,-0.000250613,5.73E-05,1.59E-05,-1.05E-05,2.93E-05,-7.73E-05,-7.47E-05,-8.30E-07,0.00033473,1.38E-04,1.54E-05,-1.87E-05,1.16E-04,-2.02E-04,7.13E-05,3.30E-05,-1.81E-05,-1.95E-05,-3.42E-06,3.71E-06,-7.24E-07,6.02E-05,-7.39E-05,-6.40E-05,3.91E-05,3.71E-06,9.20E-05,-5.00E-06,7.19E-05,-3.43E-05,-0.000317581,5.49E-05,0.000157883,5.67E-05,-4.84E-05,-7.36E-05,-8.52E-06,-1.53E-07,,,,,,,,,,,,,,,,,,,,,,,,,,,,,,,,,,,,,,,,,,,,,,,,,,,,,,
-1.16E-05,-6.79E-05,-0.000419768,-7.13E-05,0.000102204,4.87E-05,-6.79E-05,-3.62E-05,2.84E-05,-4.88E-05,-4.93E-05,-1.27E-04,2.32E-04,-4.92E-06,6.80E-05,9.99E-06,0.000226264,-0.000233962,6.15E-05,-3.49E-05,-1.09E-05,2.83E-05,-8.25E-05,-6.64E-05,-7.68E-06,0.000343515,1.36E-04,1.43E-05,-4.44E-06,1.25E-04,-1.88E-04,9.84E-05,4.08E-05,-1.28E-05,-1.54E-05,-1.22E-05,5.55E-06,1.23E-06,5.91E-05,-7.47E-05,-7.45E-05,4.12E-05,1.37E-05,8.84E-05,-2.40E-06,7.59E-05,-4.21E-05,-0.000299354,4.89E-05,0.000247048,5.81E-05,-4.87E-05,-7.68E-05,-1.14E-05,-4.13E-06,,,,,,,,,,,,,,,,,,,,,,,,,,,,,,,,,,,,,,,,,,,,,,,,,,,,,,
-6.54E-06,-6.70E-05,-0.00043406,-7.16E-05,0.000104369,5.50E-05,-7.88E-05,-2.94E-05,3.80E-05,-4.91E-05,-5.26E-05,-1.15E-04,0.000160603,-4.85E-06,6.88E-05,8.06E-06,2.99E-05,-0.0002184,6.54E-05,-8.81E-05,-1.24E-05,2.77E-05,-8.64E-05,-5.86E-05,-1.51E-05,0.000352326,1.34E-04,1.31E-05,1.79E-05,1.28E-04,-1.71E-04,0.000131096,4.78E-05,-3.63E-06,-1.19E-05,-2.10E-05,7.76E-06,2.78E-06,5.70E-05,-7.58E-05,-8.52E-05,4.34E-05,2.21E-05,8.34E-05,1.07E-06,7.88E-05,-4.93E-05,-0.000275897,4.22E-05,0.000336318,5.94E-05,-4.88E-05,-7.88E-05,-1.73E-05,-7.34E-06,,,,,,,,,,,,,,,,,,,,,,,,,,,,,,,,,,,,,,,,,,,,,,,,,,,,,,
-2.22E-06,-6.52E-05,-0.000434876,-7.18E-05,0.000106621,6.13E-05,-9.16E-05,-2.26E-05,4.86E-05,-4.90E-05,-5.47E-05,-1.03E-04,8.06E-05,-5.00E-06,6.96E-05,5.77E-06,-0.000156425,-0.000203965,6.88E-05,-0.000140708,-1.51E-05,2.71E-05,-8.85E-05,-5.11E-05,-2.30E-05,0.000361027,1.31E-04,1.14E-05,4.88E-05,1.24E-04,-1.52E-04,0.000168323,5.37E-05,9.70E-06,-8.52E-06,-2.94E-05,9.89E-06,3.92E-06,5.42E-05,-7.75E-05,-9.53E-05,4.56E-05,2.83E-05,7.74E-05,5.08E-06,8.06E-05,-5.58E-05,-0.000249463,3.55E-05,0.000421394,6.07E-05,-4.84E-05,-8.02E-05,-2.59E-05,-9.59E-06,,,,,,,,,,,,,,,,,,,,,,,,,,,,,,,,,,,,,,,,,,,,,,,,,,,,,,
1.04E-06,-6.23E-05,-0.000423859,-7.20E-05,0.000108832,6.73E-05,-1.06E-04,-1.58E-05,6.00E-05,-4.90E-05,-5.58E-05,-9.20E-05,-3.23E-06,-5.41E-06,7.03E-05,3.10E-06,-0.000325743,-0.00019065,7.16E-05,-0.00018934,-1.88E-05,2.66E-05,-8.84E-05,-4.38E-05,-3.16E-05,0.000369463,1.28E-04,9.22E-06,8.82E-05,1.13E-04,-1.30E-04,0.000208303,5.81E-05,2.72E-05,-5.03E-06,-3.71E-05,1.15E-05,4.61E-06,5.11E-05,-7.98E-05,-1.04E-04,4.75E-05,3.18E-05,7.05E-05,9.27E-06,8.12E-05,-6.15E-05,-0.000222139,2.95E-05,0.000498031,6.22E-05,-4.78E-05,-8.11E-05,-3.64E-05,-1.08E-05,,,,,,,,,,,,,,,,,,,,,,,,,,,,,,,,,,,,,,,,,,,,,,,,,,,,,,
3.09E-06,-5.89E-05,-0.000403124,-7.20E-05,0.000110847,7.29E-05,-1.20E-04,-9.39E-06,7.15E-05,-4.94E-05,-5.63E-05,-8.10E-05,-8.64E-05,-6.04E-06,7.08E-05,8.75E-08,-0.000472595,-0.000178402,7.35E-05,-0.00023094,-2.36E-05,2.60E-05,-8.62E-05,-3.66E-05,-4.04E-05,0.000377475,1.25E-04,6.22E-06,0.000135136,9.49E-05,-0.000106232,0.000248642,6.08E-05,4.85E-05,-1.04E-06,-4.39E-05,1.23E-05,4.85E-06,4.82E-05,-8.25E-05,-1.11E-04,4.90E-05,3.21E-05,6.33E-05,1.33E-05,8.09E-05,-6.66E-05,-0.000195695,2.47E-05,0.000562292,6.39E-05,-4.68E-05,-8.22E-05,-4.77E-05,-1.08E-05,,,,,,,,,,,,,,,,,,,,,,,,,,,,,,,,,,,,,,,,,,,,,,,,,,,,,,
3.99E-06,-5.53E-05,-0.000375047,-7.19E-05,0.000112507,7.78E-05,-1.34E-04,-3.58E-06,8.24E-05,-5.04E-05,-5.63E-05,-7.06E-05,-0.000164466,-6.83E-06,7.09E-05,-3.17E-06,-0.000593454,-0.000167125,7.44E-05,-0.000262884,-2.92E-05,2.54E-05,-8.21E-05,-2.91E-05,-4.94E-05,0.000384918,1.22E-04,2.36E-06,0.000187992,6.88E-05,-8.00E-05,0.00028647,6.17E-05,7.30E-05,3.70E-06,-4.95E-05,1.20E-05,4.63E-06,4.60E-05,-8.56E-05,-1.16E-04,4.99E-05,2.93E-05,5.61E-05,1.70E-05,7.97E-05,-7.14E-05,-0.000171488,2.19E-05,0.000610761,6.60E-05,-4.55E-05,-8.37E-05,-5.83E-05,-9.67E-06,,,,,,,,,,,,,,,,,,,,,,,,,,,,,,,,,,,,,,,,,,,,,,,,,,,,,,
3.99E-06,-5.21E-05,-0.000342069,-7.16E-05,0.000113655,8.20E-05,-1.46E-04,1.37E-06,9.18E-05,-5.23E-05,-5.61E-05,-6.10E-05,-0.000233549,-7.65E-06,7.06E-05,-6.55E-06,-0.000686701,-0.000156683,7.43E-05,-0.000283227,-3.55E-05,2.47E-05,-7.68E-05,-2.13E-05,-5.82E-05,0.000391666,1.18E-04,-2.38E-06,0.000244262,3.60E-05,-5.18E-05,0.000318655,6.10E-05,9.94E-05,9.36E-06,-5.40E-05,1.07E-05,3.98E-06,4.50E-05,-8.86E-05,-1.17E-04,4.99E-05,2.35E-05,4.93E-05,2.01E-05,7.80E-05,-7.59E-05,-0.000150411,2.14E-05,0.000640734,6.85E-05,-4.40E-05,-8.59E-05,-6.62E-05,-7.54E-06,,,,,,,,,,,,,,,,,,,,,,,,,,,,,,,,,,,,,,,,,,,,,,,,,,,,,,
3.51E-06,-5.03E-05,-0.000306512,-7.11E-05,0.000114148,8.54E-05,-1.57E-04,5.24E-06,9.86E-05,-5.49E-05,-5.59E-05,-5.23E-05,-0.000290461,-8.33E-06,6.98E-05,-9.91E-06,-0.000752488,-0.000146908,7.33E-05,-0.000290861,-4.22E-05,2.40E-05,-7.08E-05,-1.30E-05,-6.63E-05,0.00039762,1.14E-04,-7.92E-06,0.000300785,-1.85E-06,-2.22E-05,0.000342076,5.88E-05,0.000126231,1.60E-05,-5.74E-05,8.34E-06,2.96E-06,4.54E-05,-9.13E-05,-1.16E-04,4.90E-05,1.52E-05,4.32E-05,2.25E-05,7.58E-05,-8.02E-05,-0.000132902,2.36E-05,0.000650356,7.12E-05,-4.23E-05,-8.90E-05,-6.91E-05,-4.55E-06,,,,,,,,,,,,,,,,,,,,,,,,,,,,,,,,,,,,,,,,,,,,,,,,,,,,,,
3.03E-06,-5.08E-05,-0.000270443,-7.02E-05,0.000113866,8.82E-05,-1.64E-04,7.85E-06,0.000101813,-5.84E-05,-5.55E-05,-4.48E-05,-0.00033299,-8.71E-06,6.85E-05,-1.31E-05,-0.000792478,-0.000137607,7.14E-05,-0.000285594,-4.89E-05,2.34E-05,-6.51E-05,-4.05E-06,-7.35E-05,0.000402704,1.10E-04,-1.41E-05,0.000353936,-4.29E-05,8.66E-06,0.000353918,5.53E-05,0.00015187,2.34E-05,-5.95E-05,5.21E-06,1.69E-06,4.74E-05,-9.34E-05,-1.13E-04,4.72E-05,5.11E-06,3.81E-05,2.42E-05,7.34E-05,-8.43E-05,-0.000118991,2.85E-05,0.000638707,7.42E-05,-4.04E-05,-9.28E-05,-6.44E-05,-9.32E-07,,,,,,,,,,,,,,,,,,,,,,,,,,,,,,,,,,,,,,,,,,,,,,,,,,,,,,
3.07E-06,-5.44E-05,-0.000235566,-6.90E-05,0.000112713,9.03E-05,-1.69E-04,9.08E-06,1.01E-04,-6.25E-05,-5.51E-05,-3.85E-05,-0.000360003,-8.65E-06,6.68E-05,-1.60E-05,-0.000809512,-0.000128579,6.90E-05,-2.68E-04,-5.56E-05,2.29E-05,-6.02E-05,5.51E-06,-7.93E-05,0.000406858,1.06E-04,-2.07E-05,0.000399907,-8.47E-05,4.03E-05,3.52E-04,5.09E-05,0.00017442,3.14E-05,-6.07E-05,1.57E-06,3.37E-07,5.10E-05,-9.45E-05,-1.06E-04,4.46E-05,-6.14E-06,3.41E-05,2.54E-05,7.09E-05,-8.79E-05,-0.000108375,3.61E-05,0.000605838,7.74E-05,-3.84E-05,-9.72E-05,-4.96E-05,3.07E-06,,,,,,,,,,,,,,,,,,,,,,,,,,,,,,,,,,,,,,,,,,,,,,,,,,,,,,
4.04E-06,-6.23E-05,-0.000203171,-6.73E-05,0.000110628,9.19E-05,-1.70E-04,8.90E-06,9.42E-05,-6.70E-05,-5.44E-05,-3.36E-05,-0.000371454,-8.01E-06,6.47E-05,-1.86E-05,-0.000807231,-0.000119625,6.63E-05,-2.40E-04,-6.17E-05,2.27E-05,-5.64E-05,1.56E-05,-8.37E-05,0.000410041,1.01E-04,-2.75E-05,0.000435028,-0.00012473,7.24E-05,3.35E-04,4.60E-05,0.000192063,3.96E-05,-6.09E-05,-2.28E-06,-9.23E-07,5.60E-05,-9.44E-05,-9.84E-05,4.14E-05,-1.77E-05,3.11E-05,2.60E-05,6.83E-05,-9.07E-05,-1.01E-04,4.61E-05,0.000552741,8.05E-05,-3.64E-05,-0.000101855,-2.25E-05,7.16E-06,,,,,,,,,,,,,,,,,,,,,,,,,,,,,,,,,,,,,,,,,,,,,,,,,,,,,,
6.26E-06,-7.50E-05,-1.74E-04,-6.49E-05,0.000107592,9.32E-05,-1.68E-04,7.34E-06,8.24E-05,-7.17E-05,-5.33E-05,-3.02E-05,-0.000368302,-6.75E-06,6.23E-05,-2.09E-05,-0.000789682,-0.000110558,6.36E-05,-2.03E-04,-6.70E-05,2.25E-05,-5.35E-05,2.59E-05,-8.65E-05,0.000412217,9.67E-05,-3.42E-05,0.000456098,-0.000160418,0.000104721,3.02E-04,4.08E-05,0.00020318,4.77E-05,-6.03E-05,-5.99E-06,-1.88E-06,6.19E-05,-9.30E-05,-8.92E-05,3.79E-05,-2.89E-05,2.92E-05,2.61E-05,6.58E-05,-9.21E-05,-9.47E-05,5.82E-05,0.000481282,8.34E-05,-3.44E-05,-0.000106233,1.87E-05,1.11E-05,,,,,,,,,,,,,,,,,,,,,,,,,,,,,,,,,,,,,,,,,,,,,,,,,,,,,,
9.85E-06,-9.31E-05,-1.49E-04,-6.20E-05,0.000103628,9.41E-05,-1.63E-04,4.53E-06,6.53E-05,-7.63E-05,-5.20E-05,-2.83E-05,-0.000352357,-4.86E-06,5.95E-05,-2.30E-05,-0.000760966,-0.000101227,6.12E-05,-1.61E-04,-7.13E-05,2.26E-05,-5.12E-05,3.62E-05,-8.79E-05,0.000413366,9.19E-05,-4.04E-05,0.000460679,-0.00018947,0.000136872,0.000255377,3.59E-05,0.000206516,5.52E-05,-5.90E-05,-9.26E-06,-2.36E-06,6.84E-05,-9.03E-05,-7.94E-05,3.47E-05,-3.90E-05,2.80E-05,2.59E-05,6.33E-05,-9.18E-05,-9.03E-05,7.20E-05,0.000394075,8.61E-05,-3.25E-05,-0.000109929,7.51E-05,1.46E-05,,,,,,,,,,,,,,,,,,,,,,,,,,,,,,,,,,,,,,,,,,,,,,,,,,,,,,
1.48E-05,-0.000116742,-1.27E-04,-5.84E-05,9.88E-05,9.49E-05,-1.57E-04,6.76E-07,4.33E-05,-8.04E-05,-5.03E-05,-2.81E-05,-0.000326056,-2.45E-06,5.65E-05,-2.49E-05,-0.000724918,-9.15E-05,5.93E-05,-1.15E-04,-7.42E-05,2.28E-05,-4.89E-05,4.59E-05,-8.82E-05,0.000413479,8.70E-05,-4.61E-05,0.000447333,-0.000210034,0.000168634,0.000195784,3.14E-05,0.000201321,6.18E-05,-5.73E-05,-1.18E-05,-2.23E-06,7.48E-05,-8.64E-05,-6.97E-05,3.22E-05,-4.77E-05,2.72E-05,2.52E-05,6.07E-05,-8.94E-05,-8.65E-05,8.69E-05,0.000294331,8.84E-05,-3.09E-05,-0.000112528,0.000146708,1.76E-05,,,,,,,,,,,,,,,,,,,,,,,,,,,,,,,,,,,,,,,,,,,,,,,,,,,,,,
2.10E-05,-0.000145526,-1.10E-04,-5.42E-05,9.33E-05,9.54E-05,-1.49E-04,-3.91E-06,1.72E-05,-8.37E-05,-4.86E-05,-2.94E-05,-0.000292214,3.33E-07,5.32E-05,-2.70E-05,-0.000684875,-8.14E-05,5.80E-05,-6.88E-05,-7.56E-05,2.30E-05,-4.58E-05,5.48E-05,-8.77E-05,0.00041256,8.22E-05,-5.11E-05,0.000415776,-0.000220867,0.000199765,0.000126611,2.77E-05,1.87E-04,6.71E-05,-5.53E-05,-1.34E-05,-1.42E-06,8.07E-05,-8.14E-05,-6.06E-05,3.10E-05,-5.47E-05,2.67E-05,2.42E-05,5.82E-05,-8.48E-05,-8.27E-05,0.000102573,1.86E-04,9.01E-05,-2.95E-05,-0.000113714,0.000232408,1.99E-05,,,,,,,,,,,,,,,,,,,,,,,,,,,,,,,,,,,,,,,,,,,,,,,,,,,,,,
2.81E-05,-0.000178717,-9.52E-05,-4.93E-05,8.72E-05,9.58E-05,-1.40E-04,-8.85E-06,-1.19E-05,-8.60E-05,-4.71E-05,-3.22E-05,-2.54E-04,3.27E-06,4.98E-05,-2.93E-05,-0.000643522,-7.09E-05,5.73E-05,-2.47E-05,-7.54E-05,2.31E-05,-4.16E-05,6.22E-05,-8.70E-05,0.000410631,7.77E-05,-5.55E-05,3.67E-04,-0.000221434,0.000230025,5.16E-05,2.50E-05,1.65E-04,7.09E-05,-5.33E-05,-1.38E-05,2.51E-08,8.55E-05,-7.57E-05,-5.25E-05,3.19E-05,-6.00E-05,2.61E-05,2.27E-05,5.55E-05,-7.78E-05,-7.86E-05,0.00011839,7.19E-05,9.12E-05,-2.85E-05,-0.000113305,0.00032976,2.15E-05,,,,,,,,,,,,,,,,,,,,,,,,,,,,,,,,,,,,,,,,,,,,,,,,,,,,,,
3.57E-05,-0.000215099,-8.35E-05,-4.39E-05,8.07E-05,9.59E-05,-1.32E-04,-1.37E-05,-4.26E-05,-8.69E-05,-4.61E-05,-3.65E-05,-2.14E-04,6.11E-06,4.62E-05,-3.20E-05,-0.000602827,-6.00E-05,5.72E-05,1.51E-05,-7.35E-05,2.30E-05,-3.61E-05,6.81E-05,-8.64E-05,0.000407721,7.33E-05,-5.92E-05,3.03E-04,-0.000211944,0.000259143,-2.51E-05,2.32E-05,1.36E-04,7.31E-05,-5.15E-05,-1.29E-05,1.96E-06,8.88E-05,-6.95E-05,-4.56E-05,3.53E-05,-6.39E-05,2.51E-05,2.08E-05,5.27E-05,-6.87E-05,-7.38E-05,0.000133865,-4.30E-05,9.16E-05,-2.80E-05,-0.000111277,0.000435053,2.23E-05,,,,,,,,,,,,,,,,,,,,,,,,,,,,,,,,,,,,,,,,,,,,,,,,,,,,,,
4.36E-05,-0.000253063,-7.40E-05,-3.82E-05,7.41E-05,9.58E-05,-1.25E-04,-1.81E-05,-7.35E-05,-8.64E-05,-4.58E-05,-4.22E-05,-1.74E-04,8.59E-06,4.26E-05,-3.52E-05,-0.000564064,-4.90E-05,5.75E-05,4.92E-05,-7.01E-05,2.27E-05,-2.97E-05,7.20E-05,-8.66E-05,0.000403871,6.94E-05,-6.24E-05,2.27E-04,-1.93E-04,0.000286785,-9.94E-05,2.23E-05,1.02E-04,7.39E-05,-5.02E-05,-1.08E-05,4.17E-06,9.04E-05,-6.29E-05,-4.02E-05,4.17E-05,-6.68E-05,2.36E-05,1.83E-05,4.96E-05,-5.80E-05,-6.82E-05,0.000148485,-0.000155552,9.10E-05,-2.80E-05,-1.08E-04,0.000543416,2.24E-05,,,,,,,,,,,,,,,,,,,,,,,,,,,,,,,,,,,,,,,,,,,,,,,,,,,,,,
5.12E-05,-0.000290697,-6.61E-05,-3.22E-05,6.76E-05,9.54E-05,-1.19E-04,-2.15E-05,-0.00010309,-8.42E-05,-4.66E-05,-4.94E-05,-1.37E-04,1.04E-05,3.91E-05,-3.90E-05,-0.000527896,-3.81E-05,5.81E-05,7.65E-05,-6.55E-05,2.19E-05,-2.30E-05,7.41E-05,-8.78E-05,0.000399129,6.59E-05,-6.53E-05,0.000142108,-1.67E-04,0.000312508,-0.000167113,2.22E-05,6.37E-05,7.32E-05,-4.95E-05,-7.28E-06,6.36E-06,9.01E-05,-5.63E-05,-3.62E-05,5.11E-05,-6.90E-05,2.15E-05,1.53E-05,4.63E-05,-4.61E-05,-6.19E-05,0.000161744,-0.00026234,8.96E-05,-2.84E-05,-1.03E-04,0.000649061,2.18E-05,,,,,,,,,,,,,,,,,,,,,,,,,,,,,,,,,,,,,,,,,,,,,,,,,,,,,,
5.82E-05,-0.000325901,-5.94E-05,-2.61E-05,6.15E-05,9.48E-05,-1.13E-04,-2.36E-05,-0.000129979,-8.04E-05,-4.84E-05,-5.79E-05,-1.05E-04,1.14E-05,3.59E-05,-4.33E-05,-0.00049451,-2.74E-05,5.86E-05,9.66E-05,-5.98E-05,2.05E-05,-1.65E-05,7.44E-05,-9.02E-05,0.000393549,6.28E-05,-6.82E-05,5.35E-05,-1.35E-04,0.000335717,-0.000225077,2.27E-05,2.47E-05,7.15E-05,-4.98E-05,-2.64E-06,8.22E-06,8.78E-05,-4.98E-05,-3.37E-05,6.36E-05,-7.12E-05,1.89E-05,1.18E-05,4.28E-05,-3.36E-05,-5.50E-05,0.000173146,-0.000360592,8.71E-05,-2.93E-05,-9.74E-05,0.000745632,2.05E-05,,,,,,,,,,,,,,,,,,,,,,,,,,,,,,,,,,,,,,,,,,,,,,,,,,,,,,
6.43E-05,-0.000356526,-5.36E-05,-2.02E-05,5.58E-05,9.39E-05,-1.09E-04,-2.41E-05,-0.000152893,-7.49E-05,-5.12E-05,-6.75E-05,-7.76E-05,1.14E-05,3.33E-05,-4.79E-05,-0.000463769,-1.73E-05,5.89E-05,1.10E-04,-5.37E-05,1.87E-05,-1.12E-05,7.32E-05,-9.40E-05,0.000387198,6.01E-05,-7.12E-05,-3.46E-05,-9.91E-05,0.000355627,-0.000270757,2.34E-05,-1.31E-05,6.91E-05,-5.11E-05,2.95E-06,9.49E-06,8.38E-05,-4.35E-05,-3.25E-05,7.85E-05,-7.38E-05,1.57E-05,7.93E-06,3.91E-05,-2.11E-05,-4.77E-05,0.000182225,-0.000448123,8.38E-05,-3.04E-05,-9.13E-05,0.000826651,1.85E-05,,,,,,,,,,,,,,,,,,,,,,,,,,,,,,,,,,,,,,,,,,,,,,,,,,,,,,
6.91E-05,-0.000380515,-4.85E-05,-1.45E-05,5.08E-05,9.29E-05,-1.03E-04,-2.29E-05,-0.00017081,-6.80E-05,-5.48E-05,-7.78E-05,-5.58E-05,1.03E-05,3.14E-05,-5.27E-05,-0.000435354,-7.78E-06,5.89E-05,1.17E-04,-4.74E-05,1.64E-05,-7.49E-06,7.10E-05,-9.91E-05,0.000380158,5.78E-05,-7.44E-05,-0.000118264,-6.17E-05,0.000371237,-0.000302649,2.42E-05,-4.76E-05,6.62E-05,-5.35E-05,9.16E-06,9.96E-06,7.82E-05,-3.76E-05,-3.25E-05,9.51E-05,-7.70E-05,1.24E-05,3.78E-06,3.52E-05,-9.09E-06,-4.03E-05,0.000188574,-0.000523417,7.96E-05,-3.16E-05,-8.51E-05,0.000886002,1.58E-05,,,,,,,,,,,,,,,,,,,,,,,,,,,,,,,,,,,,,,,,,,,,,,,,,,,,,,
7.24E-05,-0.000396051,-4.40E-05,-9.25E-06,4.66E-05,9.19E-05,-9.56E-05,-2.02E-05,-0.000183003,-5.99E-05,-5.85E-05,-8.82E-05,-3.94E-05,8.09E-06,3.04E-05,-5.74E-05,-0.000408892,9.00E-07,5.85E-05,1.18E-04,-4.15E-05,1.36E-05,-5.67E-06,6.82E-05,-1.05E-04,0.000372529,5.59E-05,-7.80E-05,-0.000193663,-2.48E-05,0.00038134,-0.00032028,2.48E-05,-7.70E-05,6.34E-05,-5.69E-05,1.56E-05,9.56E-06,7.14E-05,-3.21E-05,-3.34E-05,0.00011223,-8.10E-05,8.97E-06,-3.85E-07,3.12E-05,2.15E-06,-3.30E-05,0.000191877,-0.000585636,7.48E-05,-3.29E-05,-7.92E-05,0.000918444,1.23E-05,,,,,,,,,,,,,,,,,,,,,,,,,,,,,,,,,,,,,,,,,,,,,,,,,,,,,,
7.39E-05,-0.000401681,-4.01E-05,-4.54E-06,4.32E-05,9.11E-05,-8.44E-05,-1.60E-05,-0.000189074,-5.10E-05,-6.20E-05,-9.79E-05,-2.78E-05,4.88E-06,3.06E-05,-6.17E-05,-0.000384053,8.76E-06,5.78E-05,1.15E-04,-3.64E-05,1.05E-05,-5.67E-06,6.53E-05,-0.00011206,0.000364419,5.41E-05,-8.19E-05,-0.000257965,1.00E-05,0.00038456,-0.000324148,2.50E-05,-1.00E-04,6.10E-05,-6.12E-05,2.17E-05,8.32E-06,6.38E-05,-2.70E-05,-3.50E-05,0.000128503,-8.56E-05,5.74E-06,-4.31E-06,2.72E-05,1.24E-05,-2.61E-05,0.000191964,-0.000634584,6.96E-05,-3.42E-05,-7.38E-05,0.000920081,7.90E-06,,,,,,,,,,,,,,,,,,,,,,,,,,,,,,,,,,,,,,,,,,,,,,,,,,,,,,
7.36E-05,-0.000396435,-3.69E-05,-4.56E-07,4.05E-05,9.06E-05,-6.78E-05,-1.09E-05,-1.89E-04,-4.17E-05,-6.46E-05,-1.06E-04,-2.03E-05,8.46E-07,3.18E-05,-6.53E-05,-0.000360604,1.58E-05,5.69E-05,1.09E-04,-3.24E-05,7.41E-06,-7.11E-06,6.27E-05,-0.000119399,0.000355934,5.25E-05,-8.59E-05,-0.000309234,4.16E-05,0.000379437,-0.000315581,2.47E-05,-1.16E-04,5.93E-05,-6.61E-05,2.71E-05,6.41E-06,5.59E-05,-2.25E-05,-3.71E-05,0.000142354,-9.06E-05,2.92E-06,-7.69E-06,2.32E-05,2.15E-05,-1.96E-05,0.000188846,-0.000670626,6.43E-05,-3.53E-05,-6.89E-05,0.000888744,2.62E-06,,,,,,,,,,,,,,,,,,,,,,,,,,,,,,,,,,,,,,,,,,,,,,,,,,,,,,
7.15E-05,-0.000379908,-3.44E-05,2.96E-06,3.85E-05,9.06E-05,-4.39E-05,-5.21E-06,-1.83E-04,-3.26E-05,-6.56E-05,-1.10E-04,-1.59E-05,-3.77E-06,3.42E-05,-6.81E-05,-0.000338446,2.23E-05,5.60E-05,1.01E-04,-2.96E-05,4.42E-06,-9.38E-06,6.10E-05,-0.000126873,0.000347156,5.10E-05,-9.00E-05,-0.000346546,6.92E-05,0.000364546,-0.000296534,2.38E-05,-1.25E-04,5.85E-05,-7.10E-05,3.12E-05,4.06E-06,4.81E-05,-1.85E-05,-3.95E-05,0.000152197,-9.55E-05,6.48E-07,-1.03E-05,1.94E-05,2.96E-05,-1.37E-05,0.000182762,-0.000694584,5.93E-05,-3.64E-05,-6.47E-05,0.000824265,-3.60E-06,,,,,,,,,,,,,,,,,,,,,,,,,,,,,,,,,,,,,,,,,,,,,,,,,,,,,,
6.77E-05,-0.000352307,-3.26E-05,5.70E-06,3.69E-05,9.11E-05,-1.16E-05,4.58E-07,-1.72E-04,-2.40E-05,-6.47E-05,-0.000108842,-1.37E-05,-8.68E-06,3.74E-05,-6.98E-05,-0.000317612,2.82E-05,5.55E-05,9.26E-05,-2.80E-05,1.77E-06,-1.18E-05,6.03E-05,-0.000134207,0.000338135,4.94E-05,-9.39E-05,-0.00036995,9.23E-05,0.000338659,-0.00026936,2.25E-05,-1.26E-04,5.88E-05,-7.53E-05,3.36E-05,1.59E-06,4.08E-05,-1.50E-05,-4.18E-05,1.57E-04,-1.00E-04,-9.85E-07,-1.18E-05,1.59E-05,3.66E-05,-8.35E-06,0.000174187,-0.000707611,5.49E-05,-3.73E-05,-6.09E-05,0.000728565,-1.07E-05,,,,,,,,,,,,,,,,,,,,,,,,,,,,,,,,,,,,,,,,,,,,,,,,,,,,,,
6.26E-05,-3.14E-04,-3.16E-05,7.77E-06,3.58E-05,9.24E-05,3.01E-05,5.57E-06,-1.56E-04,-1.65E-05,-6.17E-05,-0.000100854,-1.28E-05,-1.36E-05,4.11E-05,-7.04E-05,-0.00029825,3.38E-05,5.57E-05,8.43E-05,-2.72E-05,-3.90E-07,-1.36E-05,6.07E-05,-0.000141184,0.000328872,4.78E-05,-9.74E-05,-0.000380351,0.000111051,0.000300915,-0.000236569,2.07E-05,-1.22E-04,6.00E-05,-7.81E-05,3.40E-05,-7.28E-07,3.45E-05,-1.21E-05,-4.39E-05,1.54E-04,-1.03E-04,-1.95E-06,-1.21E-05,1.26E-05,4.28E-05,-3.69E-06,0.000163826,-0.000711065,5.15E-05,-3.82E-05,-5.73E-05,6.06E-04,-1.86E-05,,,,,,,,,,,,,,,,,,,,,,,,,,,,,,,,,,,,,,,,,,,,,,,,,,,,,,
5.67E-05,-2.68E-04,-3.12E-05,9.21E-06,3.48E-05,9.42E-05,8.11E-05,9.63E-06,-1.37E-04,-1.04E-05,-5.65E-05,-8.41E-05,-1.24E-05,-1.83E-05,4.51E-05,-6.98E-05,-0.000280599,3.92E-05,5.70E-05,7.67E-05,-2.66E-05,-2.01E-06,-1.45E-05,6.24E-05,-0.000147649,0.000319332,4.62E-05,-1.00E-04,-0.000379317,0.000125654,2.51E-04,-0.000200619,1.85E-05,-1.13E-04,6.21E-05,-7.86E-05,3.21E-05,-2.63E-06,2.93E-05,-9.73E-06,-4.56E-05,1.45E-04,-1.05E-04,-2.28E-06,-1.12E-05,9.61E-06,4.83E-05,2.63E-07,0.000152566,-0.0007064,4.92E-05,-3.91E-05,-5.37E-05,0.00046099,-2.72E-05,,,,,,,,,,,,,,,,,,,,,,,,,,,,,,,,,,,,,,,,,,,,,,,,,,,,,,
5.06E-05,-2.14E-04,-3.13E-05,1.01E-05,3.38E-05,9.67E-05,0.000140576,1.22E-05,-1.15E-04,-6.04E-06,-4.95E-05,-5.72E-05,-1.20E-05,-2.24E-05,4.90E-05,-6.81E-05,-0.00026494,4.46E-05,5.96E-05,7.04E-05,-2.53E-05,-3.12E-06,-1.41E-05,6.51E-05,-0.000153501,0.000309458,4.45E-05,-1.03E-04,-0.000368856,0.000136572,1.89E-04,-0.000163733,1.61E-05,-1.01E-04,6.49E-05,-7.56E-05,2.81E-05,-3.96E-06,2.56E-05,-7.90E-06,-4.66E-05,1.27E-04,-1.06E-04,-2.04E-06,-9.06E-06,7.01E-06,5.30E-05,3.47E-06,0.000141402,-0.000695063,4.82E-05,-3.99E-05,-4.98E-05,0.000301789,-3.60E-05,,,,,,,,,,,,,,,,,,,,,,,,,,,,,,,,,,,,,,,,,,,,,,,,,,,,,,
4.48E-05,-0.000155951,-3.16E-05,1.04E-05,3.27E-05,9.96E-05,0.000206941,1.31E-05,-9.26E-05,-3.48E-06,-4.12E-05,-1.93E-05,-1.12E-05,-2.60E-05,5.23E-05,-6.51E-05,-0.00025155,5.01E-05,6.36E-05,6.56E-05,-2.24E-05,-3.88E-06,-1.28E-05,6.87E-05,-0.000158673,0.000299203,4.28E-05,-1.04E-04,-0.000351176,0.000144324,0.000116854,-0.000127776,1.36E-05,-8.75E-05,6.81E-05,-6.81E-05,2.21E-05,-4.64E-06,2.33E-05,-6.55E-06,-4.69E-05,1.02E-04,-1.04E-04,-1.29E-06,-5.87E-06,4.76E-06,5.69E-05,5.86E-06,0.000131336,-0.000678435,4.87E-05,-4.08E-05,-4.53E-05,0.00013573,-4.49E-05,,,,,,,,,,,,,,,,,,,,,,,,,,,,,,,,,,,,,,,,,,,,,,,,,,,,,,
4.00E-05,-9.56E-05,-3.18E-05,1.03E-05,3.14E-05,0.000102864,0.000277622,1.21E-05,-7.01E-05,-2.78E-06,-3.23E-05,2.99E-05,-1.00E-05,-2.88E-05,5.48E-05,-6.05E-05,-0.000240655,5.57E-05,6.92E-05,6.23E-05,-1.68E-05,-4.53E-06,-1.09E-05,7.28E-05,-0.000163117,0.000288556,4.11E-05,-1.05E-04,-0.000328464,0.000149423,3.57E-05,-9.42E-05,1.09E-05,-7.34E-05,7.12E-05,-5.51E-05,1.44E-05,-4.70E-06,2.24E-05,-5.58E-06,-4.64E-05,7.08E-05,-1.00E-04,-1.19E-07,-1.93E-06,2.87E-06,5.99E-05,7.39E-06,0.000123257,-0.000657789,5.05E-05,-4.16E-05,-4.01E-05,-2.93E-05,-5.35E-05,,,,,,,,,,,,,,,,,,,,,,,,,,,,,,,,,,,,,,,,,,,,,,,,,,,,,,
3.67E-05,-3.57E-05,-3.15E-05,9.78E-06,2.97E-05,0.000106276,0.000349379,9.38E-06,-4.87E-05,-3.85E-06,-2.36E-05,8.96E-05,-8.37E-06,-3.10E-05,5.63E-05,-5.42E-05,-0.000232373,6.14E-05,7.62E-05,6.03E-05,-7.28E-06,-5.39E-06,-8.99E-06,7.71E-05,-0.000166781,0.000277565,3.96E-05,-1.04E-04,-0.000302705,0.000152337,-5.14E-05,-6.39E-05,8.09E-06,-6.01E-05,7.40E-05,-3.58E-05,5.45E-06,-4.26E-06,2.29E-05,-4.91E-06,-4.52E-05,3.43E-05,-9.50E-05,1.43E-06,2.42E-06,1.35E-06,6.20E-05,8.03E-06,0.000117837,-0.00063427,5.35E-05,-4.23E-05,-3.41E-05,-0.000185879,-6.15E-05,,,,,,,,,,,,,,,,,,,,,,,,,,,,,,,,,,,,,,,,,,,,,,,,,,,,,,
3.51E-05,2.13E-05,-3.04E-05,8.91E-06,2.78E-05,0.000109668,0.000418479,5.22E-06,-2.92E-05,-6.48E-06,-1.58E-05,0.000158035,-6.48E-06,-3.25E-05,5.67E-05,-4.55E-05,-0.000226677,6.73E-05,8.42E-05,5.93E-05,7.02E-06,-6.74E-06,-7.68E-06,8.13E-05,-0.000169607,0.000266348,3.82E-05,-1.04E-04,-0.000275557,0.000153461,-0.000141266,-3.75E-05,5.11E-06,-4.86E-05,7.62E-05,-9.74E-06,-4.14E-06,-3.47E-06,2.46E-05,-4.40E-06,-4.33E-05,-5.55E-06,-8.84E-05,3.30E-06,6.77E-06,1.89E-07,6.29E-05,7.78E-06,0.000115437,-0.000608902,5.74E-05,-4.27E-05,-2.73E-05,-0.00032764,-6.86E-05,,,,,,,,,,,,,,,,,,,,,,,,,,,,,,,,,,,,,,,,,,,,,,,,,,,,,,
3.52E-05,7.32E-05,-2.84E-05,7.73E-06,2.56E-05,0.000112865,0.000480983,1.61E-07,-1.23E-05,-1.04E-05,-9.59E-06,0.000232581,-4.56E-06,-3.36E-05,5.60E-05,-3.38E-05,-0.000223354,7.32E-05,9.30E-05,5.92E-05,2.68E-05,-8.85E-06,-7.35E-06,8.51E-05,-0.000171531,0.000255075,3.71E-05,-1.03E-04,-2.48E-04,0.000153121,-0.000230141,-1.52E-05,1.92E-06,-3.95E-05,7.75E-05,2.32E-05,-1.38E-05,-2.50E-06,2.72E-05,-3.90E-06,-4.09E-05,-4.65E-05,-8.09E-05,5.44E-06,1.07E-05,-5.75E-07,6.24E-05,6.74E-06,0.000116056,-0.000582586,6.19E-05,-4.24E-05,-1.98E-05,-0.000449657,-7.46E-05,,,,,,,,,,,,,,,,,,,,,,,,,,,,,,,,,,,,,,,,,,,,,,,,,,,,,,
3.64E-05,0.000118265,-2.54E-05,6.31E-06,2.32E-05,0.000115709,0.000533066,-5.05E-06,1.73E-06,-1.54E-05,-5.29E-06,0.0003097,-2.85E-06,-3.44E-05,5.46E-05,-1.83E-05,-0.000221997,7.92E-05,1.02E-04,5.95E-05,5.21E-05,-1.19E-05,-8.04E-06,8.83E-05,-0.000172493,0.000243949,3.63E-05,-1.01E-04,-2.22E-04,0.000151589,-0.000314214,3.33E-06,-1.56E-06,-3.31E-05,7.78E-05,6.23E-05,-2.31E-05,-1.49E-06,3.04E-05,-3.28E-06,-3.82E-05,-8.63E-05,-7.30E-05,7.83E-06,1.40E-05,-9.11E-07,6.04E-05,5.04E-06,0.000119329,-0.000556109,6.67E-05,-4.12E-05,-1.19E-05,-0.000548722,-7.94E-05,,,,,,,,,,,,,,,,,,,,,,,,,,,,,,,,,,,,,,,,,,,,,,,,,,,,,,
3.82E-05,0.000155234,-2.14E-05,4.71E-06,2.07E-05,0.000118069,0.000571341,-9.47E-06,1.27E-05,-2.12E-05,-3.06E-06,0.00038521,-1.52E-06,-3.51E-05,5.25E-05,1.98E-06,-0.000221999,8.52E-05,1.11E-04,5.98E-05,8.28E-05,-1.58E-05,-9.50E-06,9.08E-05,-0.000172448,0.000233166,3.57E-05,-1.00E-04,-1.97E-04,0.000149103,-0.000389839,1.84E-05,-5.35E-06,-2.94E-05,7.71E-05,0.000106634,-3.16E-05,-5.38E-07,3.41E-05,-2.43E-06,-3.55E-05,-0.0001227,-6.55E-05,1.04E-05,1.63E-05,-7.80E-07,5.70E-05,2.92E-06,0.000124567,-0.000530143,7.14E-05,-3.87E-05,-3.92E-06,-0.000623424,-8.30E-05,,,,,,,,,,,,,,,,,,,,,,,,,,,,,,,,,,,,,,,,,,,,,,,,,,,,,,
3.92E-05,0.000183381,-1.65E-05,3.00E-06,1.80E-05,0.000119842,0.000593157,-1.20E-05,2.07E-05,-2.75E-05,-2.81E-06,0.000454566,-7.18E-07,-3.58E-05,5.01E-05,2.78E-05,-0.000222596,9.12E-05,1.18E-04,6.00E-05,0.000117618,-2.05E-05,-1.12E-05,9.24E-05,-0.000171383,0.00022288,3.55E-05,-9.94E-05,-1.73E-04,0.000145883,-0.000453829,3.04E-05,-9.45E-06,-2.83E-05,7.55E-05,0.000154271,-3.89E-05,3.29E-07,3.78E-05,-1.27E-06,-3.31E-05,-0.000153747,-5.88E-05,1.31E-05,1.74E-05,-1.43E-07,5.22E-05,6.51E-07,0.000130856,-0.000505237,7.57E-05,-3.46E-05,3.89E-06,-0.000674046,-8.54E-05,,,,,,,,,,,,,,,,,,,,,,,,,,,,,,,,,,,,,,,,,,,,,,,,,,,,,,
3.81E-05,0.000202545,-1.12E-05,1.27E-06,1.53E-05,0.000120953,0.000596831,-1.15E-05,2.60E-05,-3.42E-05,-4.20E-06,0.000513207,-4.59E-07,-3.67E-05,4.79E-05,6.00E-05,-0.000222921,9.72E-05,1.24E-04,5.98E-05,0.000155025,-2.57E-05,-1.24E-05,9.34E-05,-0.000169322,0.000213175,3.53E-05,-9.90E-05,-1.51E-04,0.000142144,-0.000503709,4.02E-05,-1.38E-05,-2.95E-05,7.35E-05,0.000202869,-4.48E-05,1.16E-06,4.14E-05,2.19E-07,-3.12E-05,-0.000177803,-5.34E-05,1.59E-05,1.74E-05,1.02E-06,4.63E-05,-1.44E-06,0.000137178,-0.000481809,7.94E-05,-2.85E-05,1.12E-05,-0.000702329,-8.68E-05,,,,,,,,,,,,,,,,,,,,,,,,,,,,,,,,,,,,,,,,,,,,,,,,,,,,,,
3.34E-05,0.000213081,-5.64E-06,-3.96E-07,1.25E-05,0.000121355,0.000581792,-6.98E-06,2.91E-05,-4.11E-05,-6.74E-06,0.000556921,-6.72E-07,-3.80E-05,4.60E-05,9.86E-05,-0.000222091,1.03E-04,1.28E-04,5.90E-05,0.000192761,-3.10E-05,-1.25E-05,9.38E-05,-0.000166328,0.000204043,3.51E-05,-9.91E-05,-1.30E-04,0.000138092,-0.000537895,4.82E-05,-1.82E-05,-3.25E-05,7.11E-05,0.000249593,-4.94E-05,2.06E-06,4.45E-05,2.00E-06,-3.00E-05,-0.000193746,-4.97E-05,1.88E-05,1.64E-05,2.69E-06,3.96E-05,-3.03E-06,0.000142546,-0.000460136,8.22E-05,-2.01E-05,1.77E-05,-0.000711115,-8.74E-05,,,,,,,,,,,,,,,,,,,,,,,,,,,,,,,,,,,,,,,,,,,,,,,,,,,,,,
2.35E-05,0.00021579,-2.89E-07,-1.91E-06,9.75E-06,0.000121018,0.000548615,2.59E-06,3.03E-05,-4.80E-05,-9.84E-06,0.000582207,-1.20E-06,-3.96E-05,4.49E-05,0.000143758,-0.000219311,1.09E-04,1.29E-04,5.76E-05,0.000228171,-3.61E-05,-1.12E-05,9.38E-05,-0.000162502,0.000195383,3.45E-05,-9.96E-05,-1.12E-04,0.000133918,-0.000555789,5.49E-05,-2.25E-05,-3.68E-05,6.90E-05,0.000291333,-5.28E-05,3.18E-06,4.70E-05,3.99E-06,-2.96E-05,-0.000201022,-4.79E-05,2.16E-05,1.44E-05,4.83E-06,3.30E-05,-3.82E-06,0.000146139,-0.000440354,8.42E-05,-9.12E-06,2.33E-05,-0.000703952,-8.73E-05,,,,,,,,,,,,,,,,,,,,,,,,,,,,,,,,,,,,,,,,,,,,,,,,,,,,,,
6.94E-06,0.000211821,4.53E-06,-3.20E-06,7.03E-06,0.000119928,0.000498951,1.78E-05,3.02E-05,-5.47E-05,-1.29E-05,0.000586573,-1.79E-06,-4.15E-05,4.45E-05,0.000194542,-0.000213979,1.14E-04,1.28E-04,5.56E-05,0.000258393,-4.05E-05,-8.16E-06,9.38E-05,-0.000157967,0.000187013,3.33E-05,-1.00E-04,-9.46E-05,0.00012978,-0.000557778,6.09E-05,-2.65E-05,-4.21E-05,6.75E-05,0.000324934,-5.50E-05,4.66E-06,4.86E-05,6.04E-06,-2.98E-05,-0.000199663,-4.79E-05,2.44E-05,1.18E-05,7.34E-06,2.70E-05,-3.54E-06,0.000147399,-0.000422469,8.52E-05,4.42E-06,2.78E-05,-0.000684678,-8.67E-05,,,,,,,,,,,,,,,,,,,,,,,,,,,,,,,,,,,,,,,,,,,,,,,,,,,,,,
-1.72E-05,0.000202552,8.55E-06,-4.23E-06,4.37E-06,0.000118087,0.00043536,3.88E-05,2.91E-05,-6.08E-05,-1.55E-05,0.000568771,-2.16E-06,-4.39E-05,4.50E-05,0.000249576,-0.000205775,1.18E-04,1.25E-04,5.30E-05,0.000280621,-4.38E-05,-3.68E-06,9.40E-05,-0.000152858,0.000178691,3.10E-05,-1.01E-04,-7.94E-05,0.000125791,-0.000545142,6.65E-05,-3.00E-05,-4.80E-05,6.70E-05,0.000347458,-5.66E-05,6.59E-06,4.92E-05,7.98E-06,-3.04E-05,-1.90E-04,-4.93E-05,2.71E-05,8.84E-06,1.01E-05,2.27E-05,-2.02E-06,0.000146097,-0.000406378,8.53E-05,2.05E-05,3.11E-05,-0.000657056,-8.58E-05,,,,,,,,,,,,,,,,,,,,,,,,,,,,,,,,,,,,,,,,,,,,,,,,,,,,,,
-4.92E-05,0.000189467,1.16E-05,-5.04E-06,1.82E-06,0.00011552,0.000361056,6.55E-05,2.73E-05,-6.57E-05,-1.71E-05,0.000528911,-2.00E-06,-4.66E-05,4.63E-05,0.00030674,-0.00019473,1.23E-04,1.20E-04,5.00E-05,0.000292381,-4.61E-05,1.77E-06,9.46E-05,-0.000147302,0.000170155,2.73E-05,-1.01E-04,-6.63E-05,0.000122004,-0.000519883,7.17E-05,-3.27E-05,-5.42E-05,6.78E-05,0.000356437,-5.77E-05,9.00E-06,4.87E-05,9.66E-06,-3.09E-05,-1.74E-04,-5.14E-05,2.97E-05,5.70E-06,1.29E-05,2.09E-05,8.54E-07,0.000142338,-0.000391897,8.46E-05,3.89E-05,3.34E-05,-0.000624473,-8.49E-05,,,,,,,,,,,,,,,,,,,,,,,,,,,,,,,,,,,,,,,,,,,,,,,,,,,,,,
-8.91E-05,0.000174036,1.37E-05,-5.73E-06,-5.67E-07,0.000112282,0.000279621,9.69E-05,2.52E-05,-6.87E-05,-1.75E-05,0.000468473,-9.89E-07,-4.95E-05,4.83E-05,0.000363287,-0.000181231,1.26E-04,1.14E-04,4.69E-05,0.000291794,-4.72E-05,7.51E-06,9.59E-05,-0.000141409,0.000161162,2.19E-05,-9.99E-05,-5.54E-05,0.000118416,-0.000484505,7.66E-05,-3.44E-05,-6.03E-05,7.01E-05,0.000350113,-5.88E-05,1.18E-05,4.72E-05,1.09E-05,-3.05E-05,-1.52E-04,-5.31E-05,3.22E-05,2.59E-06,1.56E-05,2.24E-05,5.09E-06,0.000136525,-0.000378803,8.34E-05,5.91E-05,3.47E-05,-0.000589737,-8.40E-05,,,,,,,,,,,,,,,,,,,,,,,,,,,,,,,,,,,,,,,,,,,,,,,,,,,,,,
-0.000135585,0.000157607,1.49E-05,-6.53E-06,-2.73E-06,0.000108471,1.95E-04,0.000131897,2.31E-05,-6.87E-05,-1.67E-05,3.90E-04,1.16E-06,-5.26E-05,5.07E-05,0.000415975,-0.000165994,1.28E-04,1.06E-04,4.37E-05,2.78E-04,-4.73E-05,1.28E-05,9.81E-05,-0.000135261,0.000151529,1.48E-05,-9.78E-05,-4.68E-05,0.000114969,-0.000441778,8.11E-05,-3.52E-05,-6.61E-05,7.40E-05,0.00032762,-6.02E-05,1.48E-05,4.47E-05,1.16E-05,-2.84E-05,-1.26E-04,-5.31E-05,3.45E-05,-3.60E-07,1.80E-05,2.80E-05,1.06E-05,0.000129274,-0.000366858,8.19E-05,8.06E-05,3.51E-05,-0.000554971,-8.33E-05,,,,,,,,,,,,,,,,,,,,,,,,,,,,,,,,,,,,,,,,,,,,,,,,,,,,,,
-0.000186924,0.000141312,1.54E-05,-7.75E-06,-4.62E-06,0.000104235,1.10E-04,0.000168769,2.10E-05,-6.45E-05,-1.49E-05,2.98E-04,4.67E-06,-5.55E-05,5.32E-05,0.00046129,-0.000149973,1.29E-04,9.88E-05,4.08E-05,2.50E-04,-4.67E-05,1.68E-05,1.01E-04,-0.000128914,0.000141165,6.03E-06,-9.43E-05,-4.05E-05,0.000111569,-3.94E-04,8.50E-05,-3.51E-05,-7.14E-05,7.94E-05,2.89E-04,-6.22E-05,1.77E-05,4.13E-05,1.17E-05,-2.36E-05,-9.85E-05,-4.98E-05,3.64E-05,-3.09E-06,2.00E-05,3.80E-05,1.72E-05,0.000121312,-0.000355845,8.02E-05,0.000102428,3.50E-05,-0.000521595,-8.31E-05,,,,,,,,,,,,,,,,,,,,,,,,,,,,,,,,,,,,,,,,,,,,,,,,,,,,,,
-0.000240517,0.000126015,1.54E-05,-9.85E-06,-6.20E-06,9.98E-05,2.77E-05,0.000205551,1.93E-05,-5.49E-05,-1.22E-05,1.96E-04,9.69E-06,-5.83E-05,5.55E-05,0.000495722,-0.000134242,1.30E-04,9.17E-05,3.83E-05,2.10E-04,-4.58E-05,1.89E-05,1.05E-04,-0.000122398,0.0001301,-4.03E-06,-8.92E-05,-3.65E-05,0.000108107,-3.45E-04,8.82E-05,-3.41E-05,-7.60E-05,8.62E-05,2.36E-04,-6.52E-05,2.00E-05,3.72E-05,1.12E-05,-1.52E-05,-7.05E-05,-4.13E-05,3.80E-05,-5.59E-06,2.13E-05,5.24E-05,2.47E-05,0.000113354,-0.000345573,7.88E-05,0.00012374,3.44E-05,-0.000490388,-8.33E-05,,,,,,,,,,,,,,,,,,,,,,,,,,,,,,,,,,,,,,,,,,,,,,,,,,,,,,
-0.000293211,0.000112279,1.53E-05,-1.33E-05,-7.45E-06,9.53E-05,-4.91E-05,0.000240125,1.79E-05,-3.84E-05,-9.15E-06,8.93E-05,1.62E-05,-6.06E-05,5.72E-05,0.000516079,-0.000119849,1.29E-04,8.57E-05,3.64E-05,0.000159138,-4.51E-05,1.89E-05,1.09E-04,-0.000115732,0.000118483,-1.47E-05,-8.27E-05,-3.46E-05,0.000104472,-2.96E-04,9.03E-05,-3.27E-05,-7.96E-05,9.39E-05,0.000169705,-6.93E-05,2.14E-05,3.27E-05,1.00E-05,-2.27E-06,-4.39E-05,-2.61E-05,3.90E-05,-7.90E-06,2.21E-05,7.08E-05,3.27E-05,0.000105997,-0.000335887,7.79E-05,0.000143444,3.37E-05,-0.000461609,-8.42E-05,,,,,,,,,,,,,,,,,,,,,,,,,,,,,,,,,,,,,,,,,,,,,,,,,,,,,,
-0.000341505,0.000100372,1.54E-05,-1.88E-05,-8.42E-06,9.11E-05,-0.000118852,0.000270395,1.71E-05,-1.40E-05,-6.08E-06,-1.72E-05,2.42E-05,-6.25E-05,5.81E-05,0.000519806,-0.000107683,1.28E-04,8.10E-05,3.51E-05,0.000100005,-4.49E-05,1.67E-05,1.13E-04,-0.000108936,0.000106572,-2.50E-05,-7.50E-05,-3.44E-05,1.01E-04,-2.50E-04,9.12E-05,-3.09E-05,-8.20E-05,1.02E-04,9.40E-05,-7.46E-05,2.15E-05,2.81E-05,8.32E-06,1.58E-05,-2.01E-05,-2.46E-06,3.94E-05,-1.01E-05,2.22E-05,9.24E-05,4.08E-05,9.96E-05,-0.000326645,7.75E-05,0.000160455,3.30E-05,-0.000435132,-8.57E-05,,,,,,,,,,,,,,,,,,,,,,,,,,,,,,,,,,,,,,,,,,,,,,,,,,,,,,
-0.000381843,9.03E-05,1.58E-05,-2.67E-05,-9.17E-06,8.75E-05,-0.000180635,0.000294437,1.69E-05,1.92E-05,-3.45E-06,-0.000118914,3.34E-05,-6.37E-05,5.80E-05,0.00050526,-9.84E-05,1.27E-04,7.78E-05,3.44E-05,3.59E-05,-4.55E-05,1.29E-05,1.17E-04,-0.000102047,9.47E-05,-3.36E-05,-6.66E-05,-3.55E-05,9.64E-05,-2.07E-04,9.08E-05,-2.92E-05,-8.30E-05,1.10E-04,1.22E-05,-8.11E-05,1.99E-05,2.36E-05,6.17E-06,3.93E-05,-1.15E-07,3.07E-05,3.90E-05,-1.21E-05,2.16E-05,0.000116,4.87E-05,9.44E-05,-0.000317706,7.80E-05,0.000173735,3.25E-05,-0.000410603,-8.79E-05,,,,,,,,,,,,,,,,,,,,,,,,,,,,,,,,,,,,,,,,,,,,,,,,,,,,,,
-0.000410929,8.19E-05,1.69E-05,-3.75E-05,-9.81E-06,8.45E-05,-0.000234047,0.000310641,1.74E-05,6.14E-05,-1.62E-06,-0.000212039,4.33E-05,-6.42E-05,5.67E-05,0.000471925,-9.21E-05,1.26E-04,7.63E-05,3.44E-05,-2.96E-05,-4.73E-05,8.12E-06,1.21E-04,-9.51E-05,8.32E-05,-3.90E-05,-5.81E-05,-3.75E-05,9.18E-05,-1.68E-04,8.91E-05,-2.77E-05,-8.25E-05,1.18E-04,-7.16E-05,-8.86E-05,1.65E-05,1.94E-05,3.72E-06,6.82E-05,1.53E-05,7.38E-05,3.79E-05,-1.40E-05,2.05E-05,0.000140264,5.60E-05,9.03E-05,-0.000308903,7.91E-05,0.000182372,3.24E-05,-0.000387569,-9.08E-05,,,,,,,,,,,,,,,,,,,,,,,,,,,,,,,,,,,,,,,,,,,,,,,,,,,,,,
-0.000426052,7.48E-05,1.86E-05,-5.15E-05,-1.05E-05,8.25E-05,-0.000279204,0.000317819,1.85E-05,0.000112369,-8.33E-07,-0.000293545,5.36E-05,-6.39E-05,5.43E-05,0.000420511,-8.90E-05,1.25E-04,7.61E-05,3.51E-05,-9.29E-05,-5.01E-05,3.56E-06,1.23E-04,-8.83E-05,7.25E-05,-3.97E-05,-4.99E-05,-3.98E-05,8.69E-05,-1.35E-04,8.62E-05,-2.67E-05,-8.05E-05,1.24E-04,-0.000153568,-9.68E-05,1.12E-05,1.59E-05,1.11E-06,0.000101856,2.60E-05,0.000126594,3.60E-05,-1.57E-05,1.91E-05,0.000163722,6.22E-05,8.69E-05,-0.000300028,8.10E-05,0.000185646,3.28E-05,-0.000365588,-9.43E-05,,,,,,,,,,,,,,,,,,,,,,,,,,,,,,,,,,,,,,,,,,,,,,,,,,,,,,
-0.00042536,6.86E-05,2.08E-05,-6.85E-05,-1.12E-05,8.15E-05,-0.00031657,0.000315275,1.99E-05,0.000170877,-1.19E-06,-0.000361407,6.35E-05,-6.29E-05,5.09E-05,3.53E-04,-8.84E-05,0.000124397,7.72E-05,3.62E-05,-0.000150833,-5.41E-05,3.52E-07,1.24E-04,-8.16E-05,6.27E-05,-3.41E-05,-4.27E-05,-4.19E-05,8.17E-05,-1.07E-04,8.23E-05,-2.61E-05,-7.68E-05,1.29E-04,-0.000229852,-1.05E-04,4.22E-06,1.32E-05,-1.52E-06,0.000139264,3.20E-05,0.0001878,3.37E-05,-1.72E-05,1.74E-05,0.000184971,6.69E-05,8.38E-05,-0.000290827,8.34E-05,1.83E-04,3.36E-05,-0.000344298,-9.81E-05,,,,,,,,,,,,,,,,,,,,,,,,,,,,,,,,,,,,,,,,,,,,,,,,,,,,,,
-0.000408058,6.29E-05,2.36E-05,-8.83E-05,-1.23E-05,8.14E-05,-0.000346798,0.000302836,2.16E-05,0.000235005,-2.60E-06,-0.000414623,7.25E-05,-6.11E-05,4.66E-05,2.72E-04,-8.98E-05,0.000124849,7.90E-05,3.79E-05,-0.000200499,-5.91E-05,-5.37E-07,1.24E-04,-7.53E-05,5.41E-05,-2.06E-05,-3.69E-05,-4.34E-05,7.63E-05,-8.38E-05,7.78E-05,-2.60E-05,-7.16E-05,1.32E-04,-0.000297261,-1.13E-04,-4.10E-06,1.13E-05,-4.05E-06,0.000178903,3.39E-05,0.000255038,3.10E-05,-1.83E-05,1.57E-05,0.0002028,7.01E-05,8.05E-05,-0.000281018,8.60E-05,1.75E-04,3.49E-05,-0.000323452,-1.02E-04,,,,,,,,,,,,,,,,,,,,,,,,,,,,,,,,,,,,,,,,,,,,,,,,,,,,,,
-0.000374507,5.75E-05,2.65E-05,-0.000109851,-1.37E-05,8.20E-05,-0.000370593,0.000280852,2.32E-05,0.00030205,-4.80E-06,-0.00045315,7.98E-05,-5.85E-05,4.18E-05,0.000182156,-9.23E-05,0.000126293,8.12E-05,3.98E-05,-0.00023979,-6.47E-05,1.49E-06,1.22E-04,-6.95E-05,4.66E-05,1.58E-06,-3.28E-05,-4.39E-05,7.07E-05,-6.55E-05,7.30E-05,-2.62E-05,-6.50E-05,1.33E-04,-0.000353317,-1.21E-04,-1.33E-05,1.02E-05,-6.45E-06,0.000218873,3.23E-05,0.000324898,2.82E-05,-1.89E-05,1.42E-05,0.000216296,7.14E-05,7.66E-05,-0.000270318,8.86E-05,1.60E-04,3.67E-05,-0.000302933,-1.06E-04,,,,,,,,,,,,,,,,,,,,,,,,,,,,,,,,,,,,,,,,,,,,,,,,,,,,,,
-3.26E-04,5.19E-05,2.95E-05,-0.00013212,-1.56E-05,8.31E-05,-0.000388606,0.00025016,2.42E-05,0.000368679,-7.35E-06,-0.000477762,8.50E-05,-5.53E-05,3.67E-05,8.71E-05,-9.52E-05,0.000128775,8.34E-05,4.19E-05,-0.000267364,-7.07E-05,6.52E-06,1.19E-04,-6.44E-05,4.02E-05,3.30E-05,-3.06E-05,-4.32E-05,6.51E-05,-5.15E-05,6.82E-05,-2.62E-05,-5.73E-05,1.31E-04,-0.000396408,-1.27E-04,-2.29E-05,9.86E-06,-8.68E-06,0.00025699,2.81E-05,0.000393048,2.55E-05,-1.88E-05,1.29E-05,0.00022491,7.08E-05,7.18E-05,-0.000258493,9.09E-05,1.40E-04,3.87E-05,-0.000282734,-1.10E-04,,,,,,,,,,,,,,,,,,,,,,,,,,,,,,,,,,,,,,,,,,,,,,,,,,,,,,
-2.66E-04,4.63E-05,3.23E-05,-0.000153488,-1.79E-05,8.43E-05,-0.00040138,2.12E-04,2.45E-05,0.000431134,-9.70E-06,-0.000489868,8.77E-05,-5.16E-05,3.15E-05,-8.58E-06,-9.77E-05,0.000132242,8.52E-05,4.41E-05,-0.000282703,-7.68E-05,1.41E-05,1.15E-04,-6.00E-05,3.44E-05,7.36E-05,-3.02E-05,-4.11E-05,5.95E-05,-4.14E-05,6.39E-05,-2.58E-05,-4.85E-05,1.28E-04,-0.000425841,-1.31E-04,-3.23E-05,1.01E-05,-1.08E-05,0.000290927,2.25E-05,0.00045449,2.31E-05,-1.82E-05,1.20E-05,0.000228475,6.85E-05,6.58E-05,-2.45E-04,9.25E-05,1.15E-04,4.09E-05,-0.000262934,-1.12E-04,,,,,,,,,,,,,,,,,,,,,,,,,,,,,,,,,,,,,,,,,,,,,,,,,,,,,,
-1.96E-04,4.04E-05,3.47E-05,-0.000172106,-2.07E-05,8.52E-05,-0.000409343,1.68E-04,2.37E-05,0.000485507,-1.12E-05,-0.000491291,8.79E-05,-4.73E-05,2.67E-05,-0.000100634,-9.90E-05,0.000136558,8.65E-05,4.62E-05,-0.000286079,-8.28E-05,2.33E-05,1.11E-04,-5.64E-05,2.90E-05,0.000122162,-3.15E-05,-3.78E-05,5.41E-05,-3.45E-05,6.02E-05,-2.46E-05,-3.91E-05,1.22E-04,-0.000441802,-1.33E-04,-4.11E-05,1.08E-05,-1.30E-05,0.000318377,1.62E-05,0.000503924,2.11E-05,-1.68E-05,1.17E-05,0.000227195,6.49E-05,5.88E-05,-2.31E-04,9.33E-05,8.68E-05,4.32E-05,-0.000243672,-1.14E-04,,,,,,,,,,,,,,,,,,,,,,,,,,,,,,,,,,,,,,,,,,,,,,,,,,,,,,
-0.000120659,3.45E-05,3.64E-05,-0.000185992,-2.38E-05,8.51E-05,-0.000412841,1.20E-04,2.18E-05,0.000528056,-1.13E-05,-0.000484067,8.55E-05,-4.26E-05,2.24E-05,-0.000185446,-9.88E-05,0.000141518,8.70E-05,4.81E-05,-0.000278462,-8.84E-05,3.29E-05,1.06E-04,-5.36E-05,2.36E-05,0.000176992,-3.43E-05,-3.35E-05,4.91E-05,-3.03E-05,5.73E-05,-2.23E-05,-2.93E-05,1.15E-04,-0.000445248,-1.33E-04,-4.89E-05,1.17E-05,-1.53E-05,0.000337232,1.02E-05,0.000536201,1.94E-05,-1.49E-05,1.20E-05,0.000221591,6.02E-05,5.07E-05,-2.16E-04,9.30E-05,5.55E-05,4.55E-05,-0.000225112,-1.14E-04,,,,,,,,,,,,,,,,,,,,,,,,,,,,,,,,,,,,,,,,,,,,,,,,,,,,,,
-4.37E-05,2.85E-05,3.76E-05,-1.93E-04,-2.73E-05,8.38E-05,-0.000412205,7.01E-05,1.87E-05,0.000555517,-9.41E-06,-0.00047025,8.10E-05,-3.77E-05,1.86E-05,-0.000260195,-9.68E-05,0.000146873,8.66E-05,4.94E-05,-0.000261389,-9.35E-05,4.18E-05,1.02E-04,-5.15E-05,1.77E-05,0.000235467,-3.84E-05,-2.86E-05,4.46E-05,-2.84E-05,5.54E-05,-1.89E-05,-1.93E-05,1.08E-04,-0.000437749,-1.31E-04,-5.54E-05,1.26E-05,-1.79E-05,0.000345754,5.19E-06,0.000546814,1.80E-05,-1.24E-05,1.30E-05,0.000212435,5.51E-05,4.19E-05,-2.00E-04,9.15E-05,2.27E-05,4.78E-05,-0.000207417,-1.13E-04,,,,,,,,,,,,,,,,,,,,,,,,,,,,,,,,,,,,,,,,,,,,,,,,,,,,,,
3.16E-05,2.29E-05,3.81E-05,-1.92E-04,-3.09E-05,8.09E-05,-0.000407818,2.01E-05,1.45E-05,0.000565405,-5.28E-06,-0.000451767,7.49E-05,-3.29E-05,1.55E-05,-0.000322994,-9.27E-05,0.000152354,8.53E-05,5.02E-05,-2.37E-04,-9.80E-05,4.88E-05,9.86E-05,-4.98E-05,1.09E-05,0.000294342,-4.35E-05,-2.34E-05,4.08E-05,-2.84E-05,5.44E-05,-1.43E-05,-9.51E-06,9.98E-05,-0.000421293,-1.26E-04,-6.06E-05,1.33E-05,-2.10E-05,0.000342734,1.50E-06,0.000532386,1.65E-05,-9.63E-06,1.49E-05,0.000200667,5.01E-05,3.26E-05,-1.83E-04,8.89E-05,-1.04E-05,5.01E-05,-0.000190723,-1.10E-04,,,,,,,,,,,,,,,,,,,,,,,,,,,,,,,,,,,,,,,,,,,,,,,,,,,,,,
0.000102142,1.76E-05,3.81E-05,-1.81E-04,-3.45E-05,7.59E-05,-0.00040017,-2.79E-05,9.74E-06,0.000556242,1.24E-06,-0.000430314,6.78E-05,-2.83E-05,1.29E-05,-0.000372921,-8.67E-05,0.00015769,8.32E-05,5.02E-05,-2.07E-04,-1.02E-04,5.33E-05,9.60E-05,-4.85E-05,3.10E-06,0.000349926,-4.94E-05,-1.84E-05,3.80E-05,-2.98E-05,5.44E-05,-8.77E-06,-8.94E-08,9.18E-05,-0.000398091,-1.20E-04,-6.44E-05,1.37E-05,-2.46E-05,0.000327612,-6.23E-07,4.91E-04,1.47E-05,-6.78E-06,1.78E-05,0.000187299,4.58E-05,2.28E-05,-1.68E-04,8.52E-05,-4.24E-05,5.25E-05,-0.000175121,-1.06E-04,,,,,,,,,,,,,,,,,,,,,,,,,,,,,,,,,,,,,,,,,,,,,,,,,,,,,,
0.000165563,1.30E-05,3.77E-05,-1.60E-04,-3.80E-05,6.89E-05,-0.00038989,-7.22E-05,4.67E-06,0.000527707,1.00E-05,-0.000407305,6.05E-05,-2.42E-05,1.07E-05,-0.00040995,-7.87E-05,0.000162629,8.02E-05,4.94E-05,-1.74E-04,-1.05E-04,5.47E-05,9.45E-05,-4.71E-05,-5.85E-06,0.000398355,-5.61E-05,-1.41E-05,3.61E-05,-3.23E-05,5.53E-05,-2.68E-06,8.71E-06,8.44E-05,-0.000370383,-1.13E-04,-6.69E-05,1.38E-05,-2.90E-05,0.000300554,-1.18E-06,4.23E-04,1.24E-05,-4.11E-06,2.19E-05,0.000173332,4.27E-05,1.27E-05,-1.53E-04,8.06E-05,-7.21E-05,5.50E-05,-0.000160635,-1.00E-04,,,,,,,,,,,,,,,,,,,,,,,,,,,,,,,,,,,,,,,,,,,,,,,,,,,,,,
0.000220169,9.11E-06,3.72E-05,-0.000128692,-4.13E-05,5.98E-05,-0.000377729,-0.000111322,-2.74E-07,0.000480687,2.06E-05,-0.000383849,5.37E-05,-2.09E-05,8.73E-06,-0.000434807,-6.89E-05,0.000166944,7.67E-05,4.77E-05,-1.40E-04,-1.08E-04,5.32E-05,9.42E-05,-4.56E-05,-1.59E-05,0.000435904,-6.33E-05,-1.09E-05,3.54E-05,-3.58E-05,5.68E-05,3.53E-06,1.66E-05,7.80E-05,-0.000340281,-1.05E-04,-6.83E-05,1.36E-05,-3.42E-05,2.62E-04,-3.69E-07,0.000329888,9.26E-06,-1.93E-06,2.75E-05,0.000159676,4.13E-05,2.34E-06,-1.40E-04,7.54E-05,-9.85E-05,5.79E-05,-0.000147207,-9.40E-05,,,,,,,,,,,,,,,,,,,,,,,,,,,,,,,,,,,,,,,,,,,,,,,,,,,,,,
0.000264955,6.03E-06,3.68E-05,-8.80E-05,-4.42E-05,4.87E-05,-0.000364513,-0.000144079,-4.74E-06,4.17E-04,3.26E-05,-0.000360777,4.79E-05,-1.86E-05,6.78E-06,-0.000448782,-5.75E-05,0.000170444,7.27E-05,4.53E-05,-1.07E-04,-1.11E-04,4.89E-05,9.49E-05,-4.36E-05,-2.68E-05,0.000459309,-7.12E-05,-8.92E-06,3.57E-05,-4.00E-05,5.90E-05,9.36E-06,2.35E-05,7.27E-05,-0.000309639,-9.71E-05,-6.87E-05,1.32E-05,-4.01E-05,2.15E-04,1.48E-06,0.000215883,5.20E-06,-5.09E-07,3.49E-05,0.000147083,4.16E-05,-8.55E-06,-1.30E-04,6.96E-05,-0.000120477,6.10E-05,-0.000134698,-8.75E-05,,,,,,,,,,,,,,,,,,,,,,,,,,,,,,,,,,,,,,,,,,,,,,,,,,,,,,
0.000299523,3.72E-06,3.67E-05,-3.98E-05,-4.66E-05,3.60E-05,-0.000351055,-0.000169737,-8.53E-06,3.40E-04,4.51E-05,-0.000338678,4.36E-05,-1.73E-05,4.60E-06,-0.000453516,-4.48E-05,0.000172971,6.86E-05,4.23E-05,-7.66E-05,-1.14E-04,4.23E-05,9.65E-05,-4.11E-05,-3.84E-05,0.000466062,-7.95E-05,-8.34E-06,3.71E-05,-4.46E-05,6.17E-05,1.44E-05,2.91E-05,6.87E-05,-0.000279973,-8.98E-05,-6.83E-05,1.27E-05,-4.67E-05,1.60E-04,3.97E-06,8.65E-05,1.72E-07,-1.06E-07,4.42E-05,0.000136102,4.38E-05,-2.01E-05,-1.22E-04,6.38E-05,-0.000137558,6.43E-05,-0.000122882,-8.13E-05,,,,,,,,,,,,,,,,,,,,,,,,,,,,,,,,,,,,,,,,,,,,,,,,,,,,,,
0.000323959,2.13E-06,3.69E-05,1.35E-05,-4.85E-05,2.20E-05,-0.000338067,-0.000187972,-1.16E-05,2.54E-04,5.76E-05,-0.000317948,4.11E-05,-1.69E-05,1.95E-06,-0.000450804,-3.11E-05,0.000174405,6.47E-05,3.91E-05,-5.01E-05,-1.17E-04,3.43E-05,9.86E-05,-3.80E-05,-5.02E-05,0.000454654,-8.84E-05,-9.08E-06,3.92E-05,-4.95E-05,6.48E-05,1.82E-05,3.32E-05,6.60E-05,-0.000252413,-8.36E-05,-6.69E-05,1.24E-05,-5.38E-05,1.01E-04,6.66E-06,-5.15E-05,-5.74E-06,-9.18E-07,5.55E-05,0.000127054,4.77E-05,-3.25E-05,-1.16E-04,5.80E-05,-0.000149342,6.77E-05,-0.000111472,-7.61E-05,,,,,,,,,,,,,,,,,,,,,,,,,,,,,,,,,,,,,,,,,,,,,,,,,,,,,,
0.000338705,1.09E-06,3.77E-05,6.91E-05,-4.98E-05,7.34E-06,-0.000326065,-1.99E-04,-1.41E-05,0.000161399,6.92E-05,-0.000298841,4.03E-05,-1.72E-05,-1.39E-06,-0.000442421,-1.69E-05,0.000174664,6.11E-05,3.61E-05,-2.83E-05,-0.000120167,2.56E-05,1.01E-04,-3.44E-05,-6.20E-05,0.000424731,-9.76E-05,-1.09E-05,4.18E-05,-5.45E-05,6.80E-05,2.06E-05,3.56E-05,6.46E-05,-0.000227696,-7.86E-05,-6.49E-05,1.23E-05,-6.14E-05,3.93E-05,9.13E-06,-0.000190664,-1.24E-05,-3.06E-06,6.88E-05,0.000120041,5.32E-05,-4.58E-05,-1.12E-04,5.26E-05,-0.000155795,7.09E-05,-0.000100135,-7.23E-05,,,,,,,,,,,,,,,,,,,,,,,,,,,,,,,,,,,,,,,,,,,,,,,,,,,,,,
0.000344443,4.37E-07,3.89E-05,0.000123577,-5.05E-05,-7.50E-06,-0.000315312,-2.03E-04,-1.62E-05,6.79E-05,7.93E-05,-0.000281514,4.11E-05,-1.78E-05,-5.61E-06,-0.000429992,-2.59E-06,0.000173706,5.81E-05,3.35E-05,-1.14E-05,-0.000124063,1.71E-05,1.03E-04,-3.04E-05,-7.36E-05,0.000377151,-0.00010702,-1.35E-05,4.46E-05,-5.93E-05,7.13E-05,2.18E-05,3.63E-05,6.41E-05,-0.00020619,-7.52E-05,-6.20E-05,1.27E-05,-6.91E-05,-2.10E-05,1.10E-05,-0.000323381,-1.95E-05,-6.55E-06,8.37E-05,0.000114967,5.98E-05,-6.00E-05,-1.10E-04,4.79E-05,-0.000157206,7.37E-05,-8.85E-05,-7.03E-05,,,,,,,,,,,,,,,,,,,,,,,,,,,,,,,,,,,,,,,,,,,,,,,,,,,,,,
0.000342,-5.43E-08,4.07E-05,0.000173731,-5.06E-05,-2.19E-05,-0.000305792,-2.01E-04,-1.84E-05,-2.29E-05,8.76E-05,-0.000266058,4.32E-05,-1.80E-05,-1.08E-05,-0.0004149,1.11E-05,0.000171543,5.59E-05,3.16E-05,5.85E-07,-0.000128604,9.67E-06,1.05E-04,-2.63E-05,-8.46E-05,3.14E-04,-0.000116298,-1.63E-05,4.74E-05,-6.38E-05,7.44E-05,2.20E-05,3.52E-05,6.43E-05,-0.00018794,-7.31E-05,-5.85E-05,1.36E-05,-7.67E-05,-7.77E-05,1.21E-05,-0.000442732,-2.68E-05,-1.13E-05,9.98E-05,0.000111591,6.71E-05,-7.50E-05,-1.09E-04,4.38E-05,-0.000154158,7.57E-05,-7.64E-05,-7.00E-05,,,,,,,,,,,,,,,,,,,,,,,,,,,,,,,,,,,,,,,,,,,,,,,,,,,,,,
0.000332302,-5.89E-07,4.29E-05,0.000216555,-5.01E-05,-3.55E-05,-0.000297239,-1.94E-04,-2.10E-05,-0.000107353,9.37E-05,-0.000252516,4.63E-05,-1.72E-05,-1.72E-05,-0.000398246,2.37E-05,0.000168251,5.47E-05,3.08E-05,8.04E-06,-0.000133819,3.85E-06,1.06E-04,-2.23E-05,-9.51E-05,2.38E-04,-0.000125104,-1.89E-05,4.98E-05,-6.76E-05,7.73E-05,2.17E-05,3.24E-05,6.49E-05,-0.00017273,-7.22E-05,-5.43E-05,1.50E-05,-8.39E-05,-0.000128477,1.23E-05,-0.000542901,-3.43E-05,-1.70E-05,0.000115983,0.000109581,7.49E-05,-9.06E-05,-1.08E-04,4.06E-05,-0.000147473,7.66E-05,-6.34E-05,-7.12E-05,,,,,,,,,,,,,,,,,,,,,,,,,,,,,,,,,,,,,,,,,,,,,,,,,,,,,,
0.000316344,-1.36E-06,4.54E-05,0.000249579,-4.90E-05,-4.77E-05,-0.000289205,-1.84E-04,-2.42E-05,-0.000182727,9.75E-05,-0.000240892,4.98E-05,-1.44E-05,-2.46E-05,-0.000380835,3.44E-05,0.000163978,5.44E-05,3.10E-05,1.17E-05,-0.000139648,1.39E-07,1.07E-04,-1.87E-05,-1.05E-04,1.53E-04,-0.000133038,-2.09E-05,5.15E-05,-7.06E-05,7.96E-05,2.15E-05,2.82E-05,6.53E-05,-0.000160159,-7.22E-05,-4.96E-05,1.69E-05,-9.06E-05,-0.000171575,1.14E-05,-0.00061965,-4.16E-05,-2.35E-05,0.00013121,0.000108577,8.26E-05,-1.06E-04,-1.07E-04,3.81E-05,-0.000138134,7.63E-05,-4.96E-05,-7.34E-05,,,,,,,,,,,,,,,,,,,,,,,,,,,,,,,,,,,,,,,,,,,,,,,,,,,,,,
0.000295192,-2.52E-06,4.83E-05,0.000271069,-4.74E-05,-5.84E-05,-0.000281164,-1.72E-04,-2.80E-05,-0.000247014,9.92E-05,-0.000231145,5.36E-05,-8.87E-06,-3.30E-05,-0.000363198,4.27E-05,0.000158947,5.51E-05,3.24E-05,1.24E-05,-0.000145942,-1.27E-06,1.06E-04,-1.58E-05,-1.14E-04,6.40E-05,-0.000139685,-2.16E-05,5.25E-05,-7.27E-05,8.14E-05,2.23E-05,2.29E-05,6.54E-05,-0.000149709,-7.27E-05,-4.47E-05,1.91E-05,-9.63E-05,-0.000205785,9.71E-06,-0.000670579,-4.88E-05,-3.03E-05,0.000144066,0.000108236,9.01E-05,-1.22E-04,-1.04E-04,3.62E-05,-0.000127192,7.45E-05,-3.48E-05,-7.57E-05,,,,,,,,,,,,,,,,,,,,,,,,,,,,,,,,,,,,,,,,,,,,,,,,,,,,,,
0.000269988,-4.18E-06,5.14E-05,0.000280149,-4.54E-05,-6.73E-05,-0.000272626,-1.58E-04,-3.24E-05,-0.000299114,9.89E-05,-0.000223181,5.72E-05,6.19E-08,-4.21E-05,-0.000345631,4.82E-05,0.000153451,5.67E-05,3.47E-05,1.11E-05,-0.000152467,-3.83E-07,1.04E-04,-1.38E-05,-1.22E-04,-2.57E-05,-0.000144662,-2.07E-05,5.27E-05,-7.35E-05,8.26E-05,2.49E-05,1.70E-05,6.47E-05,-0.000140823,-7.30E-05,-3.98E-05,2.15E-05,-1.01E-04,-0.000230534,7.26E-06,-0.000695204,-5.59E-05,-3.68E-05,0.000153054,0.000108267,9.71E-05,-1.37E-04,-1.00E-04,3.47E-05,-0.000115665,7.15E-05,-1.92E-05,-7.69E-05,,,,,,,,,,,,,,,,,,,,,,,,,,,,,,,,,,,,,,,,,,,,,,,,,,,,,,
0.000241954,-6.42E-06,5.46E-05,0.00027684,-4.30E-05,-7.46E-05,-0.000263256,-1.45E-04,-3.71E-05,-0.000338765,9.69E-05,-0.000216848,6.05E-05,1.29E-05,-5.18E-05,-0.000328245,5.08E-05,0.000147828,5.90E-05,3.76E-05,8.94E-06,-0.00015892,2.57E-06,1.01E-04,-1.26E-05,-1.30E-04,-0.000111711,-0.000147665,-1.80E-05,5.21E-05,-7.31E-05,8.33E-05,2.99E-05,1.09E-05,6.30E-05,-0.000132959,-7.29E-05,-3.54E-05,2.41E-05,-1.04E-04,-0.00024585,4.33E-06,-0.000694848,-6.29E-05,-4.28E-05,0.000156706,0.000108444,0.000103593,-1.50E-04,-9.46E-05,3.35E-05,-0.000104445,6.75E-05,-3.17E-06,-7.59E-05,,,,,,,,,,,,,,,,,,,,,,,,,,,,,,,,,,,,,,,,,,,,,,,,,,,,,,
2.12E-04,-9.26E-06,5.81E-05,0.000262018,-4.03E-05,-8.04E-05,-0.000252944,-1.33E-04,-4.16E-05,-0.000366426,9.36E-05,-0.000211936,6.36E-05,2.98E-05,-6.15E-05,-0.000311025,5.04E-05,0.000142431,6.17E-05,4.09E-05,6.66E-06,-0.000164952,7.22E-06,9.62E-05,-1.23E-05,-1.37E-04,-0.000190378,-0.000148507,-1.35E-05,5.09E-05,-7.14E-05,8.35E-05,3.77E-05,5.15E-06,6.04E-05,-0.000125644,-7.18E-05,-3.18E-05,2.68E-05,-1.06E-04,-0.000252309,1.22E-06,-0.000672367,-7.01E-05,-4.78E-05,1.54E-04,0.00010859,0.000109453,-1.62E-04,-8.78E-05,3.21E-05,-9.42E-05,6.29E-05,1.31E-05,-7.15E-05,,,,,,,,,,,,,,,,,,,,,,,,,,,,,,,,,,,,,,,,,,,,,,,,,,,,,,
1.83E-04,-1.27E-05,6.17E-05,2.37E-04,-3.75E-05,-8.51E-05,-0.000241857,-1.22E-04,-4.53E-05,-0.000383105,8.92E-05,-0.000208181,6.63E-05,5.06E-05,-7.09E-05,-0.000293888,4.74E-05,0.000137593,6.46E-05,4.40E-05,5.07E-06,-0.000170202,1.31E-05,9.03E-05,-1.26E-05,-1.44E-04,-0.000258928,-0.000147152,-7.18E-06,4.92E-05,-6.84E-05,8.35E-05,4.87E-05,2.59E-07,5.69E-05,-1.19E-04,-6.96E-05,-2.94E-05,2.95E-05,-1.07E-04,-0.000250938,-1.77E-06,-0.00063176,-7.74E-05,-5.14E-05,1.43E-04,0.000108557,0.000114679,-1.72E-04,-8.00E-05,3.04E-05,-8.54E-05,5.82E-05,2.91E-05,-6.26E-05,,,,,,,,,,,,,,,,,,,,,,,,,,,,,,,,,,,,,,,,,,,,,,,,,,,,,,
1.54E-04,-1.66E-05,6.54E-05,2.05E-04,-3.48E-05,-8.90E-05,-0.00023042,-1.14E-04,-4.77E-05,-0.000390174,8.41E-05,-0.00020529,6.88E-05,7.44E-05,-7.95E-05,-0.000276734,4.23E-05,0.000133591,6.72E-05,4.68E-05,4.72E-06,-0.000174326,1.94E-05,8.33E-05,-1.32E-05,-1.49E-04,-0.000315453,-0.000143722,4.65E-07,4.71E-05,-6.42E-05,8.33E-05,6.26E-05,-3.47E-06,5.26E-05,-1.11E-04,-6.62E-05,-2.84E-05,3.23E-05,-1.06E-04,-2.43E-04,-4.37E-06,-0.000577712,-8.50E-05,-5.34E-05,1.25E-04,0.000108192,0.000119264,-1.80E-04,-7.16E-05,2.80E-05,-7.82E-05,5.39E-05,4.44E-05,-4.86E-05,,,,,,,,,,,,,,,,,,,,,,,,,,,,,,,,,,,,,,,,,,,,,,,,,,,,,,
1.27E-04,-2.10E-05,6.93E-05,1.67E-04,-3.24E-05,-9.25E-05,-0.000219257,-1.08E-04,-4.82E-05,-0.000389176,7.86E-05,-0.00020296,7.13E-05,0.000100249,-8.69E-05,-0.000259495,3.59E-05,0.000130619,6.92E-05,4.87E-05,5.91E-06,-0.000177037,2.56E-05,7.53E-05,-1.37E-05,-1.54E-04,-0.000359004,-0.000138488,8.97E-06,4.47E-05,-5.89E-05,8.33E-05,7.90E-05,-5.82E-06,4.79E-05,-1.04E-04,-6.17E-05,-2.92E-05,3.52E-05,-1.04E-04,-2.30E-04,-6.33E-06,-0.000515128,-9.29E-05,-5.39E-05,9.80E-05,0.00010731,0.000123196,-1.86E-04,-6.29E-05,2.49E-05,-7.25E-05,5.07E-05,5.86E-05,-2.92E-05,,,,,,,,,,,,,,,,,,,,,,,,,,,,,,,,,,,,,,,,,,,,,,,,,,,,,,
1.03E-04,-2.57E-05,7.32E-05,1.26E-04,-3.04E-05,-9.60E-05,-0.000209096,-1.03E-04,-4.65E-05,-0.000381661,7.27E-05,-0.000200912,7.39E-05,0.000126426,-9.27E-05,-0.000242168,2.88E-05,0.000128774,6.99E-05,4.96E-05,8.71E-06,-0.000178131,3.04E-05,6.68E-05,-1.38E-05,-1.58E-04,-0.000389553,-0.00013185,1.77E-05,4.22E-05,-5.27E-05,8.35E-05,9.70E-05,-6.71E-06,4.33E-05,-9.62E-05,-5.65E-05,-3.17E-05,3.83E-05,-1.01E-04,-2.14E-04,-7.49E-06,-0.00044871,-1.01E-04,-5.29E-05,6.41E-05,0.00010567,0.000126457,-1.89E-04,-5.43E-05,2.09E-05,-6.79E-05,4.89E-05,7.14E-05,-4.99E-06,,,,,,,,,,,,,,,,,,,,,,,,,,,,,,,,,,,,,,,,,,,,,,,,,,,,,,
8.35E-05,-3.07E-05,7.71E-05,8.52E-05,-2.91E-05,-9.97E-05,-0.000200649,-1.01E-04,-4.25E-05,-0.000369066,6.65E-05,-0.000198912,7.66E-05,0.000151047,-9.68E-05,-0.000224835,2.19E-05,0.000128051,6.90E-05,4.94E-05,1.29E-05,-0.000177514,3.27E-05,5.80E-05,-1.30E-05,-1.61E-04,-0.000407879,-0.000124287,2.59E-05,3.95E-05,-4.58E-05,8.41E-05,0.000115611,-6.24E-06,3.91E-05,-8.83E-05,-5.09E-05,-3.60E-05,4.18E-05,-9.73E-05,-1.97E-04,-7.75E-06,-0.000382611,-1.09E-04,-5.05E-05,2.40E-05,1.03E-04,0.000129024,-1.90E-04,-4.60E-05,1.60E-05,-6.39E-05,4.90E-05,8.24E-05,2.31E-05,,,,,,,,,,,,,,,,,,,,,,,,,,,,,,,,,,,,,,,,,,,,,,,,,,,,,,
6.76E-05,-3.57E-05,8.10E-05,4.58E-05,-2.87E-05,-1.04E-04,-0.000194495,-9.99E-05,-3.61E-05,-0.000352641,6.01E-05,-0.000196784,7.96E-05,0.000172022,-9.90E-05,-0.000207673,1.60E-05,0.000128352,6.59E-05,4.82E-05,1.82E-05,-0.00017521,3.13E-05,4.94E-05,-1.12E-05,-1.64E-04,-0.000415393,-0.000116309,3.30E-05,3.67E-05,-3.83E-05,8.50E-05,0.000133408,-4.59E-06,3.58E-05,-8.04E-05,-4.53E-05,-4.16E-05,4.57E-05,-9.23E-05,-1.79E-04,-7.07E-06,-0.0003202,-1.17E-04,-4.71E-05,-2.05E-05,9.89E-05,0.000130886,-1.89E-04,-3.83E-05,1.05E-05,-6.00E-05,5.10E-05,9.15E-05,5.34E-05,,,,,,,,,,,,,,,,,,,,,,,,,,,,,,,,,,,,,,,,,,,,,,,,,,,,,,
5.56E-05,-4.08E-05,8.48E-05,9.93E-06,-2.94E-05,-1.08E-04,-0.000190987,-9.98E-05,-2.75E-05,-0.000333428,5.34E-05,-0.00019441,8.29E-05,0.000187268,-9.95E-05,-0.00019094,1.16E-05,0.000129508,6.04E-05,4.60E-05,2.41E-05,-0.000171362,2.49E-05,4.15E-05,-8.00E-06,-1.65E-04,-0.00041393,-0.000108405,3.83E-05,3.37E-05,-3.06E-05,8.61E-05,0.000149038,-2.06E-06,3.38E-05,-7.26E-05,-4.01E-05,-4.83E-05,4.99E-05,-8.66E-05,-1.62E-04,-5.52E-06,-0.000263933,-0.000123667,-4.30E-05,-6.75E-05,9.32E-05,0.000132061,-1.86E-04,-3.11E-05,4.49E-06,-5.56E-05,5.50E-05,9.88E-05,8.36E-05,,,,,,,,,,,,,,,,,,,,,,,,,,,,,,,,,,,,,,,,,,,,,,,,,,,,,,
