N(16265) 10~70,N(16265) 70~130,N(16265) 300~360,N(16265) 400~460,N(16272) 240~300,N(16272) 750~810,N(16272) 940~1000,N(16272) 1100~1160,N(16273) 400~460,N(16273) 660~720,N(16273) 880~940,N(16273) 1000~1060,N(16420) 280~340,N(16420) 400~460,N(16420) 600~660,N(16420) 700~760,N(16483) 100~160,N(16483) 190~250,N(16483) 300~360,N(16483) 410~470,N(16539) 100~160,N(16539) 770~830,N(16539) 1130~1190,N(16539) 1200~1260,N(16773) 10~70,N(16773) 700~760,N(16773) 900~960,N(16773) 1100~1160,N(16786) 10~70,N(16786) 90~150,N(16786) 200~260,N(16786) 440~500,N(17052) 10~70,N(17052) 880~940,N(17052) 1000~1060,N(17052) 1200~1260,N(17453) 400~460,N(17453) 690~750,N(17453) 1240~1300,N(17453) 1440~1500,n=40(10)
-0.006914461,0.003693092,-0.119050354,-0.072146629,-0.068097813,0.120221053,-0.069916924,0.06941779,0.182216546,-0.205213995,-0.324427247,-0.057616322,-0.005832589,-0.033942464,-0.064935486,0.042734624,-0.245090929,-0.074497545,-0.258061911,-0.252364261,0.156329749,0.032989374,-0.13209309,-0.089689936,0.136002548,0.00415679,0.256083898,0.209381099,-0.254664681,-0.014460478,-0.151768282,-0.362667405,-0.021033228,-0.019954305,0.031815984,-0.004854107,-0.229166088,0.030572778,-0.029659961,-0.02024328,
-0.014601296,0.009552887,-0.040502079,-0.163647839,-0.476425473,0.140356583,-0.044853394,0.076827734,0.211852925,-0.167700765,-0.290266183,-0.043334124,0.011487682,-0.00303011,-0.088505522,0.048577689,-0.230740096,-0.041905357,-0.325641353,-0.233782861,0.145071525,0.010296696,-0.127268523,-0.080522841,0.139349715,-0.211836162,0.104168893,0.196829522,-0.238333899,0.001614623,-0.129518558,-0.357444503,-0.04804455,-0.010423281,0.032073381,0.005418007,-0.176840474,0.041994707,-0.042951461,-0.050075945,
-0.01615439,0.008483966,0.007981749,-0.259464195,-0.597420326,0.155643731,-0.013734439,0.0801491,0.221707662,-0.137831213,-0.285447731,-0.027394845,0.035273455,0.0279857,-0.102756515,0.05626382,-0.216919448,-0.001804477,-0.363856362,-0.218859171,0.120683417,-0.023870297,-0.122043921,-0.082748073,0.139123273,-0.391462385,-0.098741705,0.192303594,-0.202428052,0.015201202,-0.103354301,-0.333718452,-0.068370716,0.001422883,0.036311834,0.020603388,-0.168828056,0.054062572,-0.042015449,-0.077684748,
-0.011246948,0.005775105,0.015973705,-0.129158624,-0.409517705,0.164066207,0.034883066,0.073969474,0.209037164,-0.121545008,-0.279910006,-0.009732541,0.061979746,0.048386058,-0.105384537,0.063560974,-0.206159238,0.035483833,-0.375007514,-0.206165951,0.083009345,-0.052195036,-0.116205571,-0.093346991,0.139345912,-0.501487726,-0.317100014,0.196044708,-0.154734363,0.021842451,-0.08062106,-0.307645544,-0.077848692,0.015170322,0.040298998,0.038439111,-0.173929298,0.065665186,-0.034308848,-0.098930008,
-0.000621964,0.007709781,-0.003098343,0.472031479,-0.113234228,0.163007159,0.15165592,0.057182721,0.172471026,-0.118656362,-0.256986316,0.006256503,0.083425943,0.061094556,-0.098696285,0.066316856,-0.194332371,0.062819281,-0.366548221,-0.193096197,0.035823591,-0.065680837,-0.1093861,-0.0983299,0.145906378,-0.54956925,-0.500853043,0.201219753,-0.109296307,0.021918095,-0.066148359,-0.288044151,-0.076049983,0.027181802,0.040770976,0.071292549,-0.16912259,0.072682036,-0.027622204,-0.111229333,
0.011345579,0.015809816,-0.02137046,1.474086311,0.072183834,0.150841384,0.378917082,0.032302311,0.119030691,-0.115652651,-0.218322267,0.016227923,0.090514703,0.073410752,-0.088344495,0.061419707,-0.176405287,0.078976783,-0.348743435,-0.178214695,-0.01525105,-0.066432505,-0.10149707,-0.088638904,0.16333955,-0.566161268,-0.61288602,0.203257194,-0.074107918,0.020400323,-0.061108539,-0.275859966,-0.065963409,0.033413233,0.037744653,0.167564939,-0.152344789,0.073004173,-0.026094298,-0.114446419,
0.018076916,0.025871612,-0.025373777,2.369473289,0.074540209,0.128881255,0.636124999,0.004718982,0.059291063,-0.094338502,-0.174650366,0.019146065,0.079256311,0.087744766,-0.079293379,0.049049895,-0.153838523,0.084833973,-0.331423499,-0.162293593,-0.064035358,-0.063375126,-0.09320966,-0.071117077,0.192538512,-0.575529702,-0.649048068,0.202365825,-0.046391453,0.022980647,-0.063238925,-0.266970812,-0.053650406,0.032988374,0.033618237,0.395232001,-0.132743082,0.069336832,-0.029379254,-0.111752723,
0.016618078,0.033256534,-0.025693811,2.521224033,-0.026948801,0.100596572,0.695972712,-0.017438462,-7.28E-05,-0.052323501,-0.135066746,0.019503213,0.051030456,0.100504769,-0.072612467,0.032816253,-0.130951488,0.081590949,-0.319299561,-0.146891984,-0.104581229,-0.063264084,-0.085509365,-0.058067041,0.229703978,-0.582403984,-0.636181526,0.199912161,-0.015509781,0.032412034,-0.066502884,-0.255386457,-0.045549336,0.028041202,0.03083164,0.744956843,-0.116574237,0.066631192,-0.033874249,-0.108135371,
0.010265544,0.036977932,-0.03241616,1.682822881,-0.110949557,0.068948164,0.386925175,-0.025764783,-0.051460337,-0.006969969,-0.101121319,0.023723997,0.010128172,0.104776648,-0.065837412,0.017752568,-0.110573249,0.068837948,-0.309928439,-0.132377691,-0.133337114,-0.064067039,-0.078199917,-0.053057787,0.264448739,-0.579623382,-0.610651553,0.197030597,0.028908545,0.047370297,-0.06397395,-0.237096377,-0.043021935,0.021486526,0.030431154,1.029960488,-0.10288003,0.068738947,-0.035447953,-0.10702366,
0.005046879,0.037662145,-0.031978533,0.261247956,-0.115769942,0.035671921,-0.170475035,-0.0170343,-0.081212549,0.023761951,-0.06729889,0.033877199,-0.036029811,0.093752987,-0.056697674,0.007163239,-0.09515495,0.04083438,-0.297191229,-0.118305419,-0.151284972,-0.057657712,-0.070613392,-0.053110909,0.280551442,-0.562121904,-0.59446954,0.195266294,0.088753908,0.063604381,-0.053747445,-0.213210795,-0.041175633,0.016173658,0.031910361,0.96583305,-0.087733784,0.076861018,-0.032060001,-0.108013052,
0.005789615,0.035185828,0.001393299,-0.964615929,-0.060772586,0.00359016,-0.622577531,0.002355057,-0.078488162,0.03850181,-0.026295053,0.046001307,-0.077905985,0.066474392,-0.046293101,0.000767255,-0.086375214,-0.008545218,-0.276700047,-0.104813365,-0.162831256,-0.039476052,-0.063894897,-0.056483881,0.264081417,-0.531308524,-0.588105024,0.196905342,0.15445178,0.076413093,-0.040582537,-0.18927082,-0.034208803,0.014385644,0.034021384,0.448892352,-0.066341534,0.088551024,-0.024225474,-0.10744169,
0.01430503,0.031238188,0.068937502,-1.441217954,-0.001784826,-0.023980649,-0.703386389,0.019000106,-0.048733749,0.048255875,0.025223797,0.054097631,-0.10856306,0.031316973,-0.03773951,-0.004361591,-0.083923784,-0.071668105,-0.249637758,-0.092561771,-0.171747302,-0.015461965,-0.059811814,-0.061749963,0.214590625,-0.492258089,-0.581990276,0.205679165,0.209977791,0.083507733,-0.030538161,-0.170643545,-0.020784802,0.015823832,0.035715288,-0.265423675,-0.03393757,0.097983561,-0.013913747,-0.101347098,
0.027988116,0.03293762,0.132865993,-1.195845344,0.022236674,-0.049598403,-0.453167398,0.022247205,-0.020812329,0.061553175,0.083721881,0.055177845,-0.127304222,0.001159149,-0.03278095,-0.01156392,-0.085424213,-0.124199253,-0.222779173,-0.082092341,-0.178451125,0.001950374,-0.057363176,-0.065738813,0.148976048,-0.452390007,-0.568462431,0.22464865,0.242972076,0.086605325,-0.026036138,-0.158950415,-0.00329115,0.017171905,0.0362468,-0.749005019,0.006553153,0.099209032,-0.003539548,-0.088905977,
0.040572316,0.048865268,0.15495519,-0.674825405,0.010713424,-0.081531311,-0.129382059,0.012653849,-0.040967664,0.078583105,0.139844777,0.051258334,-0.137526045,-0.015380575,-0.030389801,-0.023016377,-0.085156141,-0.143371926,-0.202526564,-0.07352417,-0.18104064,0.006276477,-0.053556094,-0.066166481,0.092882105,-0.418641556,-0.54276318,0.249305546,0.251446467,0.090728166,-0.026928562,-0.152944465,0.021852425,0.01539678,0.035316329,-0.774898501,0.041115493,0.090439599,0.00497072,-0.073199523,
0.045987807,0.078499142,0.136824125,-0.31514976,-0.010751594,-0.12074599,0.041803663,0.000795255,-0.121192273,0.094428223,0.183316875,0.047041731,-0.140632222,-0.018182047,-0.026866538,-0.038790727,-0.076648764,-0.127579775,-0.188363574,-0.066173317,-0.177792602,0.003820856,-0.047141781,-0.060247769,0.06509239,-0.392346018,-0.503146173,0.264378425,0.242143657,0.101629561,-0.031048878,-0.150161024,0.080416796,0.010863206,0.03385887,-0.473121604,0.05758489,0.075533385,0.011524603,-0.058419038,
0.04223224,0.110633481,0.102539617,-0.260792581,-0.016279902,-0.154364976,0.018177358,-0.002869962,-0.144298654,0.102572223,0.208514809,0.04613936,-0.134215999,-0.014137139,-0.018380552,-0.056307501,-0.060153977,-0.095321348,-0.17475619,-0.058597876,-0.168596844,0.001045024,-0.039361688,-0.041929884,0.066790369,-0.369201122,-0.455582197,0.253274475,0.223001462,0.122626583,-0.029578175,-0.146660284,0.222426702,0.006933847,0.033560785,-0.152005713,0.058599773,0.06152381,0.018358359,-0.046760537,
0.032938616,0.135564314,0.065652857,-0.386104566,0.000727887,-0.168789763,-0.093814829,0.003031781,0.139029077,0.098522929,0.215679039,0.049485499,-0.116607027,-0.012415137,-0.006025538,-0.070957374,-0.043390743,-0.067357023,-0.159036982,-0.049645086,-0.155680358,-0.013911807,-0.032459301,-0.010340041,0.08420117,-0.344482289,-0.411926155,0.212901403,0.195604445,0.153608197,-0.008459715,-0.137677112,0.47145486,0.007216758,0.034881425,-0.024143668,0.056260107,0.054144252,0.028039714,-0.037766191,
0.025728409,0.151029147,0.037014826,-0.495525878,0.026719429,-0.164073994,-0.169839058,0.011606327,0.896093791,0.084820344,0.207333648,0.055881068,-0.090039361,-0.018612548,0.003568049,-0.078564843,-0.032095476,-0.052169986,-0.144303823,-0.039560372,-0.14349932,-0.051381163,-0.029134283,0.020462881,0.101276748,-0.316858822,-0.379708743,0.156782677,0.153836253,0.190230968,0.037200828,-0.120751976,0.734379622,0.012837819,0.036804453,-0.090305771,0.05867929,0.054575353,0.040665378,-0.029815845,
0.026867915,0.152692813,0.035573788,-0.48810323,0.044484468,-0.150718395,-0.16186179,0.015513416,1.927144224,0.072239712,0.18467233,0.063222892,-0.058297141,-0.032229339,0.004877473,-0.078325793,-0.02239007,-0.045775578,-0.133965275,-0.029455231,-0.136186501,-0.058007383,-0.031916612,0.02959853,0.109147378,-0.287575138,-0.356760405,0.104333671,0.090218331,0.219684374,0.093502412,-0.098720835,0.798558108,0.021494762,0.038458691,-0.217646216,0.066260415,0.059570971,0.053937987,-0.021567273,
0.035298344,0.131189654,0.064232303,-0.386690261,0.049412737,-0.137590045,-0.101689846,0.012843415,2.647513774,0.072190196,0.147181974,0.070106351,-0.019347181,-0.049091358,-0.00076555,-0.073190602,-0.004871234,-0.042049877,-0.125479639,-0.018623225,-0.133926687,0.098606563,-0.040761331,0.007257551,0.101057745,-0.257129319,-0.335258709,0.070178862,0.004655627,0.223187901,0.139262739,-0.078538526,0.509911725,0.029070514,0.039210053,-0.284085218,0.075933583,0.064451104,0.065711706,-0.011966646,
0.043344789,0.087090404,0.096820855,-0.269984426,0.0493114,-0.127463083,-0.046546404,0.006556206,2.481352076,0.085277337,0.094500945,0.076467501,0.049507767,-0.064044701,-0.007316596,-0.067171982,0.023704453,-0.046063797,-0.111040807,-0.002626474,-0.132425575,0.504471837,-0.050040382,-0.038365939,0.06291374,-0.224871917,-0.307936802,0.060076039,-0.091659053,0.191790622,0.1630129,-0.06622773,-0.027407613,0.032978103,0.03775195,-0.259598854,0.082881551,0.066073407,0.074961578,-0.000682417,
0.045735008,0.039208091,0.104296837,-0.195140563,0.052719252,-0.119810595,-0.027385101,-6.22E-05,1.372650594,0.098266991,0.028612669,0.082124955,0.201303868,-0.071968684,-0.010647125,-0.062370983,0.054980162,-0.074028118,-0.084036718,0.023029617,-0.126974542,1.008533957,-0.049605598,-0.087539432,-0.005662586,-0.193793112,-0.272785102,0.0699886,-0.180435651,0.136952728,0.163700531,-0.063110947,-0.497120629,0.034432027,0.033088816,-0.190542646,0.080140994,0.063638889,0.080884996,0.010315089,
0.045537076,0.008327853,0.077060735,-0.166665209,0.061923303,-0.112200823,-0.035642517,-0.005861168,-0.102362997,0.09489815,-0.044166311,0.08594126,0.467829359,-0.06995031,-0.011145638,-0.058294722,0.077716134,-0.115081096,-0.0450867,0.056346446,-0.117302173,1.230223808,-0.031419354,-0.119960567,-0.033200593,-0.172128808,-0.236033927,0.088326831,-0.245094347,0.081453412,0.142516472,-0.065447666,-0.646340784,0.036809545,0.026356287,-0.136174273,0.06167078,0.058601562,0.083244332,0.01741839,
0.048669145,-0.002530597,0.024394453,-0.154374698,0.075295573,-0.100241447,-0.044546698,-0.009347267,-1.179937762,0.072168482,-0.112650333,0.087499788,0.736496103,-0.059396163,-0.010264825,-0.053332756,0.090192089,-0.078964965,-0.003822792,0.089857415,-0.107709124,0.884510024,0.003641779,-0.126081917,0.144365383,-0.164668971,-0.208841237,0.100579596,-0.277855532,0.043177926,0.101890657,-0.066166783,-0.486199424,0.041622944,0.020633637,-0.12165168,0.027783096,0.053975536,0.083351988,0.019019893,
0.05710763,-0.005707206,-0.029039189,-0.129974435,0.091074032,-0.08121052,-0.036890847,-0.006776309,-1.477512544,0.046112609,-0.164576965,0.087899483,0.740068854,-0.043767268,-0.007551485,-0.046056981,0.100024554,0.163307036,0.026109212,0.118220493,-0.102398698,0.10864337,0.043234576,-0.114021445,0.679076894,-0.165372697,-0.197093824,0.088294103,-0.281292188,0.027828565,0.049387095,-0.058947801,-0.228323402,0.047358989,0.018838835,-0.134179989,-0.013061342,0.051612721,0.083170844,0.017357468,
0.071425203,-0.011814206,-0.054622806,-0.089477539,0.107721137,-0.060012846,-0.01522648,0.003345751,-1.167697166,0.038099629,-0.193619004,0.088229707,0.314868818,-0.024713602,-0.002286122,-0.035820068,0.112337743,0.596803984,0.036849129,0.139235673,-0.101666061,-0.615640549,0.068085536,-0.102971522,1.51010629,-0.16248757,-0.194988683,0.030830107,-0.264799627,0.031011574,-0.00267218,-0.043388866,-0.074822711,0.052363008,0.02262012,-0.147053947,-0.04923979,0.050637205,0.08380266,0.015906123,
0.094789356,-0.020612272,-0.042710662,-0.049368773,0.123384411,-0.047719512,0.00745667,0.014678628,-0.703245696,0.053952207,-0.20247244,0.088976547,-0.34089915,-0.003315548,0.003996823,-0.024162252,0.121113992,0.938155583,0.03114318,0.149096746,-0.102619639,-0.879854784,0.063905511,-0.105494599,2.239419444,-0.147634492,-0.190644998,-0.059719671,-0.239574785,0.043154683,-0.043314138,-0.026047014,-0.079980825,0.056635975,0.032990136,-0.143688076,-0.073079247,0.049986738,0.085244441,0.016061906,
0.127060465,-0.025154266,-0.006786368,-0.027327238,0.136248365,-0.049804392,0.021975676,0.016217845,-0.4329691,0.080953837,-0.198849356,0.090887398,-0.797720648,0.016388611,0.008444823,-0.0152933,0.112433602,0.835155482,0.01791275,0.14370034,-0.102563572,-0.659330445,0.031267713,-0.117410613,2.301460874,-0.119842741,-0.176447063,-0.083346922,-0.214728336,0.054430076,-0.068397339,-0.014806479,-0.167805855,0.06022149,0.049302728,-0.125947951,-0.083524163,0.050321733,0.086522197,0.01696871,
0.15509294,-0.022109406,0.037827857,-0.026685187,0.144565566,-0.059262087,0.028343178,0.00282624,-0.423142591,0.10655923,-0.189868444,0.094887055,-0.793220254,0.028820568,0.009799035,-0.012557926,0.076096529,0.256213339,0.004246056,0.122627039,-0.101048966,-0.247773507,-0.015846431,-0.125335602,1.432318516,-0.084918895,-0.152209553,0.138631802,-0.19516381,0.05878731,-0.08021567,-0.012317065,-0.235855246,0.062207071,0.066969955,-0.106297362,-0.084706826,0.051575325,0.08572434,0.017031171,
0.157282272,-0.027075656,0.083693023,-0.036626224,0.14624995,-0.065038876,0.03177589,-0.018691764,-0.53479562,0.131593826,-0.179596123,0.100681271,-0.435812739,0.03179767,0.009041239,-0.014100385,0.01593659,-0.409900508,-0.011818175,0.086966649,-0.098865486,0.037165726,-0.059460624,-0.119518359,0.013529855,-0.05184007,-0.123046058,0.732394071,-0.181741671,0.055671759,-0.084100542,-0.015274449,-0.237105149,0.062091243,0.079525268,-0.094222101,-0.083542894,0.051364343,0.08101958,0.014872166,
0.124778382,-0.075705785,0.119726714,-0.044205846,0.139605747,-0.062737985,0.037579457,-0.035130752,-0.605485449,0.16118814,-0.168905042,0.106121417,-0.044771794,0.029545256,0.007823361,-0.014248418,-0.049422386,-0.707291845,-0.040963533,0.038220484,-0.096204406,0.075786239,-0.08631706,-0.098871117,-1.162683931,-0.028162116,-0.098053697,1.584266115,-0.172697818,0.049846552,-0.084680964,-0.017962977,-0.190457291,0.060606635,0.084046188,-0.09022779,-0.086079673,0.048316216,0.073035587,0.01021118,
0.074109938,-0.16439361,0.133589862,-0.043039402,0.125417207,-0.055288242,0.048335632,-0.038755929,-0.569006374,0.192749513,-0.156291951,0.109016093,0.137748043,0.030173403,0.007885403,-0.009788594,-0.096159623,-0.517859989,-0.088688934,-0.015336278,-0.092558112,-0.045645119,-0.092213637,-0.071487308,-1.525393458,-0.015673272,-0.084955331,2.265421882,-0.164554472,0.047292961,-0.081711168,-0.015236552,-0.141564731,0.05872678,0.082455594,-0.089523454,-0.0918042,0.044650893,0.066486666,0.00460324,
0.032032223,-0.160168572,0.131245195,-0.031669445,0.107261117,-0.048460618,0.062749023,-0.033645046,-0.459198502,0.220110073,-0.139996746,0.109470245,0.088642972,0.038276716,0.011044776,-0.003251644,-0.109024027,-0.097093236,-0.142250102,-0.056832416,-0.087543743,-0.170486389,-0.082455502,-0.057649486,-1.11953003,-0.009158898,-0.081516277,2.239742789,-0.153072509,0.042678879,-0.070642128,-0.004191957,-0.120449639,0.05662183,0.077501925,-0.087043512,-0.091531121,0.043350628,0.067719719,0.000714297,
0.010577844,0.164741339,0.131835483,-0.010722168,0.08841286,-0.046663278,0.077467277,-0.030487571,-0.349504601,0.24173356,-0.120561144,0.110475761,-0.057440373,0.051215696,0.017562795,0.000799325,-0.090376825,0.214921279,-0.178259711,-0.07211578,-0.081426039,-0.203470023,-0.068395765,-0.08246107,-0.446144188,-0.002044796,-0.076852353,1.30948013,-0.135522298,0.012241537,-0.049761854,0.014299893,-0.125470769,0.054225329,0.06905471,-0.079702609,-0.076520788,0.044865767,0.079424248,0.000225685,
0.000886359,0.903796313,0.138107991,0.014141478,0.069365809,-0.049754555,0.090345172,-0.036304806,-0.29459878,0.255916569,-0.101182861,0.118016985,-0.155490546,0.064818481,0.025133575,0.001135199,-0.057543607,0.267328889,-0.183326039,-0.061742233,-0.075589755,-0.149009988,-0.059934093,-0.133501763,-0.001168589,0.005998342,-0.063578816,-0.112081798,-0.11328732,-0.048725525,-0.027631737,0.035021153,-0.135608972,0.052129692,0.054402459,-0.067807649,-0.050789956,0.048151245,0.098083775,0.002634157,
-0.012359251,1.801412802,0.131347942,0.031076097,0.048471485,-0.053891069,0.101024545,-0.049430249,-0.300789505,0.252477477,-0.085143556,0.13867148,-0.150352744,0.080086057,0.031977503,-4.16E-06,-0.029809671,0.140610412,-0.163794912,-0.039437628,-0.071051479,-0.067514916,-0.058567049,-0.108415262,0.051096556,0.010384853,-0.045175102,-1.267377041,-0.09180561,-0.046575428,-0.027701735,0.051263087,-0.133614768,0.050721761,0.031612976,-0.054905138,-0.029357629,0.05262443,0.115647982,0.006222336,
-0.034028246,2.330321678,0.097025417,0.0299778,0.023273723,-0.055899093,0.109364073,-0.06246133,-0.330370689,0.218539571,-0.073105227,0.170601422,-0.07880136,0.100011132,0.040662158,-0.00040472,-0.015713396,0.005422496,-0.137341751,-0.020090481,-0.064362609,-0.014116256,-0.05800101,0.14613878,-0.131778685,0.011420432,-0.029778528,-1.636191601,-0.076893669,0.215067925,-0.075919464,0.059373863,-0.118828915,0.049329178,0.00278934,-0.044482696,-0.023628277,0.057086882,0.123470485,0.009660903,
-0.053794782,2.062745336,0.041107082,0.011476071,-0.008169285,-0.054969468,0.115198398,-0.068182332,-0.336100214,0.152268196,-0.063252706,0.197383786,-0.00898356,0.12154377,0.056020078,0.000585065,-0.011251588,-0.030652312,-0.118361915,-0.010076119,-0.047854902,-0.006329552,-0.052093504,0.645210733,-0.299334123,0.016413848,-0.019620976,-1.266019831,-0.070706698,0.855927184,-0.144103493,0.059775383,-0.101889638,0.047188699,-0.025648834,-0.037151959,-0.031538127,0.058709193,0.117316563,0.013461442,
-0.056813204,1.039120124,-0.016036872,-0.014570703,-0.045009223,-0.051043977,0.119129542,-0.063410865,-0.298275958,0.065080127,-0.053879393,0.199189139,0.018073289,0.136019623,0.078912225,0.00239141,-0.008364129,0.026836536,-0.109629979,-0.006744313,-0.017771757,-0.026452298,-0.041123357,1.099737624,-0.316537232,0.028698051,-0.009782764,-0.614672006,-0.070504997,1.680868856,-0.087559186,0.055033462,-0.091592595,0.044483828,-0.046385649,-0.031632936,-0.041924247,0.05582733,0.099511286,0.020330654,
-0.043339555,-0.209511222,-0.051530354,-0.037701386,-0.082417039,-0.045397519,0.121513022,-0.050648145,-0.232303307,-0.028476075,-0.045183917,0.171972494,0.007298287,0.136936555,0.103975218,0.003210718,-0.004945727,0.108608262,-0.104935405,-0.00374067,0.019597304,-0.044420965,-0.029170982,1.080130542,-0.211601742,0.042143012,0.004072808,-0.14465472,-0.070416508,2.187142152,0.296997894,0.04909306,-0.088455166,0.042190692,-0.055893977,-0.026654122,-0.045472433,0.051185424,0.076186919,0.031874499,
-0.042868512,-1.052005502,-0.051348914,-0.051803405,-0.113902046,-0.041534574,0.120806637,-0.037042361,-0.167295076,-0.116498454,-0.038446731,0.130610131,-0.011143598,0.125166926,0.123898042,0.001390792,-0.010744403,0.156432425,-0.101545163,0.002768467,0.051472774,-0.042276869,-0.018667267,0.456130394,-0.090335171,0.05041224,0.020987306,-0.032850406,-0.06509807,1.934754699,1.057663581,0.04727388,-0.088138421,0.041058822,-0.05607708,-0.020979884,-0.039333663,0.050349477,0.053776997,0.045313757,
-0.093847972,-1.216076852,-0.021625963,-0.055756091,-0.1353341,-0.0414028,0.114513964,-0.028455119,-0.121296069,-0.187174707,-0.034192366,0.093770219,-0.015874077,0.109608796,0.134823005,-0.00147528,-0.037095336,0.159757179,-0.112985725,0.006828316,0.066587729,-0.022222374,-0.014769552,-0.400212251,-0.029271551,0.055173082,0.037537621,-0.163316457,-0.053490616,0.968236105,1.905476293,0.05385335,-0.08677323,0.040731894,-0.051140441,-0.013410184,-0.02445038,0.056243335,0.036049455,0.056612413,
-0.165478158,-0.902294198,0.009033452,-0.05315603,-0.146636693,-0.042643872,0.101304083,-0.024654954,-0.092070993,-0.229308694,-0.031566989,0.070312586,-0.007777691,0.101211893,0.136866213,-0.00094148,-0.054128625,0.143539119,-0.15379867,-0.009465781,0.060859792,0.004115733,-0.030938767,-0.935219528,-0.031969442,0.062398193,0.051968126,-0.316153192,-0.039765014,-0.172994209,2.310828792,0.067834876,-0.082667894,0.040145662,-0.043796626,-0.003901038,-0.003972066,0.065667204,0.021799286,0.064857243,
-0.087886786,-0.518114477,0.007894625,-0.04906537,-0.150223362,-0.041971692,0.081350452,-0.023036946,-0.065540507,-0.238357478,-0.029320048,0.059486775,0.004200161,0.099580142,0.129920103,0.004751312,0.042551701,0.136178303,-0.176606319,-0.04825804,0.037953161,0.028678219,-0.066564547,-0.899012492,-0.054524584,0.075066497,0.064501186,-0.353921628,-0.029851556,-0.896875181,1.896576796,0.082918584,-0.076165874,0.038618507,-0.035460751,0.006158888,0.016832705,0.071636118,0.007596446,0.069417228,
0.357385049,-0.34118606,-0.032647991,-0.045750036,-0.14846666,-0.038738756,0.055724448,-0.023908752,-0.03125048,-0.219940231,-0.027480391,0.057299711,0.01845917,0.088016602,0.110728517,0.011515902,0.348693937,0.148633155,-0.036250204,-0.038006657,0.005475137,0.049851619,-0.062044844,-0.491207551,-0.054335917,0.091261615,0.074933229,-0.278526997,-0.026774538,-0.999044247,0.801601218,0.093286496,-0.068897301,0.036554554,-0.028144613,0.015240176,0.033242478,0.069244345,-0.006338855,0.06577187,
1.178526849,-0.38754357,-0.09557202,-0.042819485,-0.142392329,-0.034941068,0.026507235,-0.028278307,0.009955635,-0.190838667,-0.027950123,0.053398735,0.037896492,0.049906057,0.075987202,0.013877419,0.767726385,0.17452325,0.380364217,0.161709153,-0.027572294,0.068652408,0.099729498,-0.100939749,-0.018597453,0.106005041,0.082510786,-0.171036218,-0.029372234,-0.708781246,-0.382620345,0.098708399,-0.062452655,0.035258348,-0.023536468,0.022497621,0.043237729,0.059437378,-0.015496097,0.049674952,
2.012001003,-0.507692929,-0.176152187,-0.038801472,-0.132433478,-0.03359047,-0.003369053,-0.033525635,0.050741741,-0.183525336,-0.032264207,0.023821361,0.059584484,-0.010889286,0.028567307,0.011191734,0.978603155,0.201966832,0.916578663,0.597448936,-0.051027387,0.084722128,0.479981496,0.032025957,0.038469169,0.11386442,0.088430192,-0.102734652,-0.033839085,-0.3992391,-1.078321513,0.104762297,-0.057924326,0.035436125,-0.020775059,0.027246319,0.046999513,0.047644205,-0.012164382,0.023766227,
2.306683949,-0.558357732,-0.274784889,-0.031131208,-0.119826283,-0.035084575,-0.031835117,-0.035076828,0.08539073,-0.234251902,-0.038511847,-0.037964568,0.073767708,-0.070849928,-0.020825426,0.007759621,0.713151853,0.223921284,1.142209891,1.041318504,-0.057514609,0.095568295,0.925544609,-0.065443532,0.094846484,0.113329009,0.095727561,-0.089339133,-0.035594839,-0.28825445,-1.128639782,0.118419584,-0.055566582,0.036003304,-0.016963967,0.028826089,0.046327039,0.039449287,0.027761635,-0.003978068,
1.752787436,-0.500540664,-0.301285283,-0.018958045,-0.106087889,-0.034576442,-0.058849402,-0.031273458,0.111860152,-0.317085947,-0.042236606,-0.040133368,0.072472649,-0.106812885,-0.059125251,0.007739709,0.068041987,0.240485799,0.744621431,1.100552752,-0.04849388,0.100918134,1.089196599,-0.219751089,0.137793779,0.109842621,0.106446348,-0.102381664,-0.031628178,-0.356227934,-0.797534676,0.143040602,-0.053504051,0.035550121,-0.009909806,0.027294806,0.043758154,0.037617116,0.166282457,-0.026258972,
0.578201689,-0.385360842,-0.035337194,-0.006459022,-0.091294534,-0.02675683,-0.084609047,-0.024682328,0.129504846,-0.267358669,-0.040864682,0.22846093,0.05736221,-0.112795015,-0.078467878,0.011701234,-0.539416578,0.254501627,-0.089702794,0.611108735,-0.03348538,0.10749259,0.730805261,-0.289976155,0.169030234,0.111025224,0.119118311,-0.107154448,-0.022612732,-0.461318064,-0.464045858,0.177824161,-0.047694197,0.034657114,0.001209371,0.023287581,0.041121766,0.041542902,0.486976604,-0.038457823,
-0.589626176,-0.28515138,0.687897774,0.000772262,-0.074875422,-0.01291758,-0.107560048,-0.019066865,0.138508048,0.15563556,-0.035831581,0.925729767,0.038117116,-0.099557989,-0.080062422,0.018430545,-0.738711439,0.266200862,-0.796456066,-0.136155796,-0.021944713,0.124984102,0.00543508,-0.253891365,0.198700641,0.11747239,0.128048327,-0.089446696,-0.012526518,-0.493024104,-0.338648629,0.216370835,-0.03433508,0.035071385,0.021114459,0.017204213,0.039580204,0.048124157,1.00003529,-0.038377187,
-1.200126756,-0.237478557,1.696658494,0.002338465,-0.058613878,0.000288412,-0.125656264,-0.016019095,0.139980324,1.009582935,-0.03043222,1.878495782,0.022917092,-0.081177022,-0.072189291,0.028860759,-0.499470641,0.272082878,-0.944909424,-0.642540776,-0.016408269,0.154726879,-0.632873622,-0.174081224,0.235384331,0.122883713,0.128360853,-0.056181995,-0.005978794,-0.439456049,-0.39857433,0.241512377,-0.012498915,0.036706998,0.072932572,0.009687443,0.040800583,0.05419605,1.512471779,-0.025104741,
-1.154142994,-0.232045548,2.444492472,0.004086491,-0.046659767,0.007672537,-0.138561168,-0.01401082,0.133383426,1.93797833,-0.026733996,2.532026789,0.012631892,-0.063455241,-0.063879066,0.046266129,-0.088593731,0.26818238,-0.577397014,-0.647719867,-0.012876891,0.185348722,-0.826864216,-0.115809358,0.279339876,0.124881046,0.123930695,-0.02045742,-0.005617576,-0.35595321,-0.503662917,0.23182896,0.014897329,0.037428979,0.209625103,0.002953496,0.046508973,0.059440946,1.639170813,0.015037565,
-0.765338382,-0.234910335,2.356462908,0.01316219,-0.04156331,0.008799416,-0.1468446,-0.009126895,0.11482956,2.308077477,-0.024418063,2.332536629,0.0046614,-0.046344894,-0.059280596,0.071693511,0.196281215,0.253193152,-0.078642368,-0.299691373,-0.006250288,0.202409738,-0.585021325,-0.097849193,0.322478165,0.128315854,0.125008587,0.012131216,-0.01097868,-0.297810476,-0.542596778,0.18299092,0.041704308,0.035779739,0.47462601,3.92E-05,0.055635303,0.067183641,1.091955316,0.135072623,
-0.429254685,-0.220734425,1.324117854,0.031923434,-0.041568496,0.005703324,-0.149396281,0.002986381,0.081630481,1.728825939,-0.021678618,1.247385738,-0.000854628,-0.029678368,-0.057061262,0.100481029,0.240186989,0.228053552,0.199411552,0.056553571,0.004613288,0.202099501,-0.197530414,-0.100006009,0.352971991,0.136041073,0.13553675,0.045740453,-0.018657146,-0.279216742,-0.497353369,0.116921376,0.061273528,0.032259673,0.796279079,0.001829364,0.0629477,0.081924331,0.024021959,0.423448705,
-0.337064329,-0.186972918,-0.118005981,0.056382948,-0.042443813,-0.000335238,-0.143758067,0.023876615,0.039655158,0.456358177,-0.016768373,-0.141056522,-0.000922075,0.003046511,-0.051868444,0.124448936,0.125687251,0.193450828,0.177039838,0.18941658,0.013479199,0.1948565,0.045521537,-0.097969982,0.35933118,0.144686794,0.148215297,0.085435796,-0.023710439,-0.277646454,-0.41372342,0.063853153,0.070813687,0.028627539,0.941664378,0.005741224,0.062792418,0.104615792,-1.002098974,0.917487222,
-0.429538704,-0.147338123,-1.188615192,0.081563444,-0.041524565,-0.006927334,-0.129608324,0.051480395,0.002596133,-0.783802482,-0.009424974,-1.104151916,0.005052148,0.113605881,-0.029629078,0.137397247,0.005879401,0.148059278,0.007445845,0.106548258,0.00738265,0.193992286,0.053976833,-0.084856866,0.33272619,0.150610397,0.154254051,0.129526523,-0.022158846,-0.263964055,-0.339278605,0.039174583,0.072471624,0.027011251,0.684281074,0.008174689,0.054390884,0.128242556,-1.458301597,1.457755716,
-0.539027868,-0.116415349,-1.477749313,0.106045916,-0.039014269,-0.007673179,-0.110545408,0.082722,-0.018804213,-1.388889781,-0.001726675,-1.31690928,0.011473831,0.382541387,0.04573385,0.139008021,-0.024368075,0.089007885,-0.117020123,-0.038934162,-0.015541311,0.200944451,-0.071472489,-0.066117291,0.268005106,0.154121506,0.153604312,0.172526065,-0.013292209,-0.227285934,-0.290867578,0.038746509,0.06922029,0.028487821,0.072786314,0.008103556,0.042818257,0.138550703,-1.250880408,1.658924375,
-0.550986401,-0.098657161,-1.174807297,0.125877528,-0.035448813,0.001834663,-0.092133994,0.113409497,-0.024084642,-1.286284776,0.003348726,-0.987700432,0.009039843,0.77238092,0.232845368,0.133147743,0.031249442,0.015401181,-0.115940408,-0.111792238,-0.009721487,0.204557694,-0.180000036,-0.047415294,0.163194791,0.157470361,0.153489297,0.211967223,-9.17E-05,-0.177857457,-0.261703251,0.049437248,0.061875195,0.032003227,-0.539584213,0.007770309,0.035535645,0.12455067,-0.708750149,1.182386199,
-0.46565588,-0.089351417,-0.757561316,0.127649522,-0.0306146,0.015885145,-0.078748532,0.135141291,-0.01863174,-0.840934611,0.00501801,-0.561356972,-0.006496765,1.014554566,0.545626739,0.120774948,0.111889524,-0.06720374,-0.032948842,-0.082008133,0.125455576,0.192003796,-0.193633631,-0.032365772,0.02126833,0.161532984,0.159385395,0.249213061,0.012592454,-0.132436309,-0.239892191,0.059471565,0.05117103,0.035638301,-0.797072712,0.009606058,0.037233748,0.090824834,-0.254395231,0.127520686,
-0.35391262,-0.083458097,-0.55026956,0.099940118,-0.025868128,0.023366583,-0.072094777,0.136482013,-0.00682634,-0.473066612,0.005160743,-0.350025667,-0.026728825,0.78386559,0.831827273,0.096484022,0.162057652,-0.14662525,0.047280358,-0.003416166,0.458487588,0.156036977,-0.131719652,-0.022125034,-0.14412317,0.165845863,0.16965786,0.284151144,0.020502581,-0.098999844,-0.217718942,0.062261762,0.040335863,0.039618097,-0.643307866,0.013207629,0.045474813,0.054039557,-0.101103304,-0.941914349,
-0.27817554,-0.080497062,-0.56668169,0.052520658,-0.024452855,0.021047237,-0.071590561,0.109681416,0.00851417,-0.367314436,0.005498241,-0.385331133,-0.035864814,0.08086969,0.799055963,0.05545215,0.166862761,-0.210097747,0.077694536,0.057860981,0.880223379,0.097759009,-0.057853985,-0.01038263,-0.306845787,0.17030336,0.178855714,0.310339542,0.021479895,-0.073412562,-0.192379146,0.056747416,0.033749987,0.047376702,-0.311628067,0.016247933,0.052635395,0.025684672,-0.191962023,-1.447933169,
-0.250331036,-0.081197006,-0.653048804,0.012413386,-0.027984516,0.017460863,-0.074408173,0.057050585,0.024322002,-0.449011271,0.00620922,-0.515229519,-0.026992869,-0.668934542,0.307534059,0.002910453,0.147244847,-0.251189481,0.067416901,0.074743905,1.092824006,0.030137179,-0.017177431,0.012670136,-0.438464885,0.174560377,0.18424449,0.316195416,0.016706365,-0.045969776,-0.163517244,0.047220315,0.033365677,0.061482022,-0.076284513,0.017831822,0.054604028,0.004206444,-0.34075271,-1.254735008,
-0.244409252,-0.083033812,-0.68198577,-0.002452507,-0.034101484,0.022014528,-0.075836376,-0.008094565,0.037896572,-0.544162943,0.00761506,-0.585604336,-0.010598381,-0.991398164,-0.390766739,-0.045551082,0.131438119,-0.271217877,0.05252283,0.062784085,0.852340557,-0.025361781,-0.012405813,0.046867669,-0.524064307,0.177747747,0.187193166,0.289681273,0.011677887,-0.008564472,-0.130235313,0.041687828,0.03736518,0.078456824,-0.04482555,0.019833945,0.054627289,-0.015634799,-0.404598826,-0.692539736,
-0.231875226,-0.080140113,-0.626515623,0.000778266,-0.038304017,0.03409009,-0.072509486,-0.066945855,0.048445556,-0.542499738,0.010871038,-0.548999531,-0.002733151,-0.781916952,-0.838260257,-0.074274376,0.133657891,-0.27551846,0.061133452,0.052606405,0.242130949,-0.053433949,-0.020330409,0.080929919,-0.56739431,0.180399466,0.188922777,0.220806702,0.013954351,0.041638158,-0.090431698,0.044619481,0.042337588,0.09037938,-0.144536331,0.024660442,0.057020515,-0.033020478,-0.360078045,-0.214221127,
-0.20367335,-0.066693703,-0.524439465,0.000867277,-0.037142092,0.045080452,-0.065540048,-0.104304039,0.057353933,-0.449914762,0.016344643,-0.454079278,-0.005645801,-0.320784766,-0.79521442,-0.079190989,0.153748382,-0.269670649,0.098271801,0.062042272,-0.362245357,-0.057657841,-0.019603322,0.10499918,-0.582122512,0.185093142,0.187720155,0.103693486,0.027798967,0.100987104,-0.042485628,0.0419576,0.045602722,0.092203659,-0.242982057,0.032187341,0.061451264,-0.043175737,-0.269134521,-0.056096987,
-0.168830394,-0.041496847,-0.422643458,-0.01506663,-0.029536691,0.047204893,-0.058977251,-0.115298501,0.066989054,-0.339167864,0.02354997,-0.371330151,-0.006541166,0.03730984,-0.414653174,-0.069613257,0.184942412,-0.258142725,0.148427281,0.087654798,-0.618941773,-0.058293725,-0.00396352,0.118666071,-0.581578334,0.194748772,0.181664126,-0.05726456,0.051085877,0.160321651,0.012811631,0.001715775,0.045606985,0.085913329,-0.263421035,0.039567434,0.065128112,-0.038932821,-0.200607451,-0.158148218,
-0.139659871,-0.009729503,-0.357331815,-0.040572115,-0.016662814,0.038681408,-0.05594159,-0.104897062,0.078794038,-0.27323762,0.03246874,-0.334350873,0.004496486,0.132263674,-0.039079777,-0.058885651,0.218648705,-0.243880429,0.18959113,0.115776527,-0.484715671,-0.076305167,0.020590074,0.128475922,-0.573208849,0.209105179,0.172904332,-0.241139789,0.077316169,0.209087744,0.071065159,-0.065502899,0.042202847,0.077308475,-0.215553744,0.044077689,0.066869726,0.009024481,-0.178861628,-0.316174922,
-0.119683095,0.020091844,-0.344758551,-0.057615114,-0.001675774,0.024124761,-0.057094622,-0.080913553,0.091291679,-0.261939433,0.041955361,-0.3321245,0.024628863,0.029872002,0.103588631,-0.053586736,0.248072728,-0.22807961,0.212148153,0.138322446,-0.182496418,-0.115712226,0.043358114,0.137540406,-0.556858436,0.22160132,0.168277249,-0.414370694,0.10074615,0.240827869,0.12530596,-0.022032438,0.037401048,0.069279272,-0.153848072,0.045350559,0.066646986,0.179160861,-0.185565136,-0.376602777,
-0.104758684,0.039506883,-0.362224772,-0.057556952,0.010345126,0.011494109,-0.060686983,-0.039702041,0.098865506,-0.271048977,0.047805778,-0.335369065,0.046216625,-0.111615402,0.024052992,-0.051165049,0.270812667,-0.211115057,0.224659462,0.158091269,0.031475748,-0.159558855,0.057171184,0.139245584,-0.529390476,0.222905523,0.175216859,-0.546249289,0.120452139,0.255724668,0.168673853,0.350785276,0.034818001,0.058484537,-0.121091846,0.044657512,0.063852102,0.571927214,-0.191698868,-0.321011598,
-0.092464294,0.042159786,-0.364297666,-0.067546386,0.013991529,0.006923651,-0.06294788,0.05090055,0.095350156,-0.263361299,0.046338679,-0.323278927,0.063979354,-0.179046032,-0.121667104,-0.046416522,0.286263059,-0.193853056,0.239963634,0.181537036,0.056985455,-0.184502516,0.065297675,0.128392347,-0.492763397,0.208980628,0.195439616,-0.623865475,0.136944805,0.257948438,0.19741163,1.113540812,0.037319508,0.038986632,-0.122761198,0.043280432,0.059423209,1.18304633,-0.182855256,-0.222633762,
-0.085705516,0.028070732,-0.332678506,-0.14383819,0.008286389,0.011845769,-0.060906648,0.229994926,0.081881324,-0.229252516,0.039697647,-0.29276212,0.075018891,-0.154011507,-0.196698429,-0.03390116,0.290805673,-0.177432022,0.261278521,0.209945451,-0.037153526,-0.181296053,0.078365032,0.112822531,-0.455366203,0.182682681,0.222397704,-0.654938454,0.143898656,0.249651166,0.214243105,1.951280136,0.044413407,0.009038018,-0.137904826,0.042381707,0.058311531,1.753804831,-0.161886239,-0.155876177,
-0.087180508,0.007086027,-0.287349406,-0.276010272,-0.001068975,0.024165393,-0.055354234,0.453531594,0.067805462,-0.18385882,0.034640816,-0.252779754,0.080695528,-0.082539493,-0.170993154,0.007815416,0.278545704,-0.162092971,0.282562487,0.238310685,-0.126972208,-0.160811816,0.101364398,0.101625943,-0.424881794,0.148976339,0.246212901,-0.6580451,0.130989655,0.226385759,0.226881683,2.291615722,0.051943378,-0.02538286,-0.144067768,0.043443334,0.067323145,1.824202426,-0.137918318,-0.14205882,
-0.093937784,-0.006279525,-0.248486352,-0.272837824,-0.007137116,0.039651224,-0.049373025,0.542845955,0.061300268,-0.14527358,0.036858772,-0.213984521,0.086024198,-0.019935723,-0.097598079,0.136854952,0.247679768,-0.147152574,0.294622649,0.259626526,-0.14394793,-0.140804639,0.126749509,0.086359139,-0.402400676,0.113301251,0.259512998,-0.649307582,0.098212557,0.178509839,0.238254149,1.773513306,0.055447807,-0.053144559,-0.133656899,0.047323366,0.090937166,1.106529913,-0.116695369,-0.155218504,
-0.097853692,-0.00427332,-0.210209057,0.156615456,-0.007805745,0.052687111,-0.045158807,0.324048666,0.062272059,-0.11871158,0.049568064,-0.181263668,0.092476387,0.00646185,-0.040097583,0.410071704,0.204351203,-0.132347368,0.288198056,0.268224923,-0.101044494,-0.131313754,0.143473882,0.047585708,-0.383997089,0.083246205,0.25720573,-0.635868761,0.058891044,0.099063543,0.238578488,0.624883877,0.054222764,-0.065430827,-0.114001817,0.052568671,0.127178601,-0.144296498,-0.098394246,-0.159768664,
-0.089903007,0.008208579,-0.161519857,1.089070848,-0.004804593,0.058785541,-0.043391854,-0.146497097,0.065045105,-0.09744482,0.074821661,-0.15222871,0.096893653,0.003442674,-0.024000722,0.748263282,0.157106051,-0.118672742,0.25583214,0.260862637,-0.048321514,-0.132848612,0.150094936,-0.018465534,-0.365176316,0.066078868,0.235539816,-0.617729496,0.026334929,-0.007179241,0.21113032,-0.496032805,0.051239349,-0.062370114,-0.096866448,0.055741954,0.163613131,-1.245775799,-0.080727542,-0.140961094,
-0.065530424,0.019579657,-0.125512938,2.156423004,0.000234212,0.056670722,-0.043851899,-0.573957479,0.064670883,-0.074425667,0.108790311,-0.120924409,0.098864764,-0.005915322,-0.035470321,0.871843654,0.107315222,-0.10722995,0.194027482,0.236510112,-0.0202302,-0.140582669,0.154867166,-0.089707222,-0.342443171,0.063239286,0.196524645,-0.592721364,0.004389688,-0.122061396,0.147330231,-1.047799279,0.049437204,-0.052056719,-0.088262922,0.05441379,0.180164619,-1.63931881,-0.062720097,-0.108572266,
-0.02927824,0.022938267,-0.143059787,2.705059611,0.006559187,0.048523541,-0.045191373,-0.686424529,0.060100603,-0.049911461,0.136647268,-0.082662887,0.102368446,-0.004715808,-0.047205978,0.535062947,0.048647447,-0.097524147,0.104737137,0.194509777,-0.016457931,-0.144925961,0.164440971,-0.138560291,-0.312975094,0.070765512,0.150742643,-0.56047234,-0.00934886,-0.222549845,0.054499028,-0.976317366,0.049488782,-0.042853433,-0.085991679,0.049539224,0.162852604,-1.308089957,-0.045504543,-0.0800987,
0.00548598,0.021151381,-0.202354248,2.268922166,0.01300878,0.04027509,-0.044794328,-0.471138235,0.05366412,-0.028496416,0.141269723,-0.035867003,0.110969431,0.009495549,-0.043009493,-0.139499709,-0.023709071,-0.087437319,-0.003888507,0.132831798,-0.016550214,-0.134087311,0.176880251,-0.156022866,-0.27634646,0.081317331,0.110678691,-0.523448409,-0.016720482,-0.291827383,-0.049221258,-0.617727871,0.05058452,-0.037403678,-0.084413377,0.04433076,0.117560784,-0.686057762,-0.030135168,-0.063929427,
0.024365083,0.021484132,-0.237495451,0.978293582,0.018147544,0.03983506,-0.04044977,-0.145417539,0.048359952,-0.012814529,0.11935328,0.018324373,0.12651374,0.031078607,-0.025406792,-0.704226684,-0.105227352,-0.073619634,-0.118343771,0.050349635,-0.004778539,-0.106175064,0.185728802,-0.154515707,-0.237437033,0.075515619,0.082349071,-0.485380389,-0.016496407,-0.324686945,-0.142759173,-0.341896422,0.051892789,-0.033485413,-0.079839481,0.041112705,0.067282292,-0.241510846,-0.015966061,-0.056134059,
0.021775148,0.027102245,-0.213077192,-0.477856756,0.022329388,0.052630285,-0.032412793,0.06068748,0.045150906,-0.00234166,0.083922004,0.075524705,0.150213078,0.053313344,-0.006536653,-0.80825278,-0.182596707,-0.051812923,-0.222710577,-0.047723423,0.017903994,-0.076895656,0.186851956,-0.154590213,-0.204782176,0.023145762,0.066593369,-0.449140543,-0.006770419,-0.326453846,-0.208102401,-0.294826505,0.053112606,-0.028256097,-0.071731798,0.039951045,0.032018006,-0.154510298,-0.001680461,-0.047705033,
0.003840911,0.034697414,-0.153240555,-1.365127048,0.02803604,0.078923247,-0.023116766,0.074891836,0.043282413,0.004710953,0.051804992,0.127798595,0.180593004,0.070083237,0.005700304,-0.49481767,-0.242714704,-0.020539686,-0.302471352,-0.148017982,0.040359252,-0.066139694,0.179138292,-0.168557969,-0.184314317,-0.068939557,0.064071404,-0.416091817,0.011558614,-0.30898031,-0.237346662,-0.394880454,0.054016298,-0.020472381,-0.061166565,0.040028983,0.013691413,-0.303038577,0.013057315,-0.032338846,
-0.016954191,0.039092387,-0.092703687,-1.4342893,0.036209616,0.114135439,-0.015433971,-0.01937419,0.042430447,0.015296868,0.033503997,0.167196183,0.209903876,0.078405872,0.013032114,-0.0879294,-0.28128284,0.014791666,-0.348191809,-0.234460163,0.054548023,-0.078067352,0.161147183,-0.189605609,-0.175508251,-0.092005211,0.073646275,-0.386995519,0.033319417,-0.285861819,-0.237559634,-0.488762308,0.054119112,-0.010226524,-0.049965413,0.040669296,0.002291487,-0.462222633,0.027436874,-0.009154881,
-0.029161704,0.038584144,-0.049850462,-0.990534275,0.043459611,0.150043543,-0.01119203,-0.099707447,0.04253929,0.045288416,0.032606839,0.190554931,0.224194464,0.082121103,0.02123698,0.125767412,-0.300624775,0.04598956,-0.35906374,-0.296153774,0.062054817,-0.099541496,0.130542761,-0.197948761,-0.172559959,0.148118591,0.088052759,-0.361946495,0.050847938,-0.267272244,-0.225764437,-0.492445902,0.053042119,0.002338746,-0.040775446,0.040600358,-0.010544936,-0.49715278,0.039872173,0.018638984,
-0.027884171,0.036111305,-0.029325817,-0.528701539,0.044533828,0.176507281,-0.009959984,-0.10662161,0.043434227,0.104474407,0.044639772,0.1982226,0.208913639,0.087669086,0.032526691,0.090168967,-0.303411143,0.069833919,-0.345461241,-0.330833563,0.070034287,-0.114336059,0.086759318,-0.183072001,-0.167969515,0.783740936,0.09098825,-0.338669226,0.05754695,-0.256394272,-0.215729616,-0.423779591,0.05058848,0.023037633,-0.035815226,0.038203874,-0.026511771,-0.417220236,0.047535553,0.04552673,
-0.016878818,0.036565971,-0.018514969,-0.34236625,0.037729399,0.184644979,-0.009079739,-0.059574998,0.048510952,0.173779026,0.047194585,0.187380562,0.158314294,0.094772517,0.04467325,-0.06136404,-0.293394129,0.086819629,-0.325459618,-0.343179456,0.082923891,-0.114567789,0.033355278,-0.15721773,-0.15656206,1.688125623,0.058325573,-0.312773682,0.044962206,-0.249784901,-0.209967968,-0.347877977,0.046781088,0.078707309,-0.034530637,0.033398053,-0.041990366,-0.309475658,0.045941513,0.065960311,
-0.004082847,0.042807343,0.000571442,-0.411074644,0.027883683,0.169936831,-0.005772143,-0.008897651,0.066524299,0.212139857,0.003292853,0.150824357,0.083893339,0.097150286,0.055263304,-0.168163969,-0.277483379,0.095012297,-0.312494157,-0.341281621,0.099258215,-0.102505346,-0.021745656,-0.142290309,-0.137967247,2.403056701,-0.018888159,-0.281952834,-0.003519247,-0.240967216,-0.204050218,-0.307745063,0.042044138,0.224833219,-0.033638312,0.028381364,-0.04983855,-0.245932991,0.030805581,0.077816781,
0.006427331,0.052995301,0.024686265,-0.545588984,0.023280714,0.132865108,0.000469882,0.014302451,0.104098361,0.19419022,-0.07769044,0.085586711,0.01093301,0.091786707,0.063518659,-0.16471639,-0.261980664,0.090697005,-0.305918495,-0.332563118,0.115803985,-0.086528516,-0.069350747,-0.146629038,-0.116229699,2.361286769,-0.083915542,-0.249051908,-0.082621981,-0.224848923,-0.193804244,-0.297805743,0.036551887,0.501101386,-0.029855474,0.02606819,-0.032006387,-0.239163963,0.001808817,0.083296576,
0.016119846,0.061932536,0.03104208,-0.588307499,0.029343573,0.078910944,0.007894688,0.012203942,0.156870857,0.134818063,-0.050335698,0.000609086,-0.039397882,0.080175669,0.068361684,-0.089796654,-0.248408666,0.071215494,-0.29649728,-0.320455842,0.13179775,-0.073919487,-0.104111126,-0.159971044,-0.097147785,1.358187459,0.013587104,-0.218815416,-0.087606698,-0.20083182,-0.176847388,-0.287823299,0.030345346,0.829728983,-0.021631794,0.027770483,0.06105617,-0.256800038,-0.035975938,0.085493585,
0.025941382,0.065689089,0.004804413,-0.509534295,0.044762384,0.019396655,0.014472741,0.004111295,0.210092582,0.074690445,0.331302713,-0.086564016,-0.063209726,0.062537933,0.067803825,-0.017710727,-0.234186585,0.033635918,-0.278371087,-0.304859426,0.147818474,-0.063731342,-0.126453512,-0.167767967,-0.084693691,-0.154894405,0.446137053,-0.193683028,0.191648833,-0.173331364,-0.153077573,-0.259001932,0.025242245,0.97603391,-0.008681091,0.032484369,0.3127269,-0.261540933,-0.074594436,0.085495654,
0.032285607,0.065083273,-0.043703946,-0.377032638,0.062124055,-0.030485366,0.01915098,0.005463367,0.245675294,0.047062617,1.162386022,-0.159714982,-0.068897341,0.038334351,0.060921588,0.008755904,-0.216844701,-0.02214821,-0.253440521,-0.285758074,0.163300243,-0.047066047,-0.13987665,-0.163373116,-0.078723018,-1.357582072,1.230281824,-0.174916319,0.880840638,-0.149258123,-0.127045214,-0.21557044,0.024538659,0.710925852,0.008228752,0.038066954,0.7729648,-0.239579059,-0.106209017,0.083467004,
0.031011334,0.065371641,-0.083396993,-0.270343037,0.07294724,-0.058189678,0.021974156,0.018475745,0.249140045,0.057076438,2.124029743,-0.210240948,-0.066141486,0.010080075,0.048897257,-0.003669497,-0.197687337,-0.084268851,-0.226833262,-0.265304728,0.177025635,-0.01796293,-0.14756265,-0.14886426,-0.075433705,-1.699231043,2.063875157,-0.163220462,1.767471442,-0.133164316,-0.105843609,-0.171546671,0.028744217,0.075064248,0.026056426,0.042292578,1.322827175,-0.202186001,-0.125189526,0.079410387,
0.023737771,0.072217539,-0.088085004,-0.220086546,0.073638286,-0.059938789,0.023436114,0.035637131,0.215305332,0.085075389,2.573042823,-0.236771741,-0.061885646,-0.018370723,0.03440247,-0.023080789,-0.17966905,-0.12989473,-0.201404631,-0.246262255,0.188148554,0.01525144,-0.150394402,-0.130666866,-0.070069516,-1.260854973,2.39312005,-0.155124757,2.309913989,-0.124215848,-0.093500373,-0.135748071,0.033454209,-0.576696596,0.039440373,0.043614646,1.613444071,-0.169030768,-0.130712301,0.070505024,
0.017149531,0.087649903,-0.060882843,-0.205742388,0.066522012,-0.042439385,0.023410439,0.048916632,0.150679524,0.106450803,2.050895591,-0.242688004,-0.060049807,-0.044694161,0.020877079,-0.0252838,-0.162901465,-0.141932924,-0.178410386,-0.229593213,0.195762493,0.033473383,-0.146309321,-0.115172392,-0.060366274,-0.563221444,1.80850052,-0.144077147,2.035122622,-0.118366589,-0.090023333,-0.109387856,0.033998072,-0.865565715,0.044001496,0.042655399,1.280169103,-0.150811322,-0.127584719,0.051045534,
0.015891853,0.110867792,-0.02317935,-0.192327722,0.056728738,-0.017320464,0.02179836,0.056269513,0.069484459,0.10991761,0.747672577,-0.234411213,-0.059567196,-0.067542079,0.010592252,-0.008567367,-0.147151549,-0.123134087,-0.160121492,-0.214281432,0.198597094,0.023911773,-0.132300322,-0.106448433,-0.047990708,-0.100101509,0.474289642,-0.128108228,0.993610742,-0.11203575,-0.092414489,-0.087619258,0.030886289,-0.710533508,0.039903933,0.042797492,0.331531022,-0.144079567,-0.122287302,0.018732307,
0.019091297,0.138980743,0.013266861,-0.162865084,0.050341212,0.021897065,0.020426343,0.061362575,-0.013349005,0.099864743,-0.607199159,-0.219184738,-0.054459121,-0.086697304,0.001601648,0.013347325,-0.135987909,-0.091855723,-0.147134921,-0.198853291,0.194874808,-0.009205675,-0.109325574,-0.105131943,-0.036110841,-0.028316817,-0.905046626,-0.111553141,-0.228394431,-0.103054442,-0.093598037,-0.057718488,0.028029656,-0.347139159,0.031298393,0.047927957,-0.741848313,-0.138998038,-0.118139532,-0.020258367,
0.024906652,0.162250907,0.048585602,-0.122758871,0.052422281,0.124269288,0.022649082,0.068345339,-0.085056852,0.087155131,-1.339683939,-0.202870583,-0.036172151,-0.10362595,-0.011716581,0.027662048,-0.132184589,-0.066132042,-0.136128462,-0.182683169,0.181390668,-0.050344543,-0.08521617,-0.108465072,-0.026059943,-0.193434788,-1.623494534,-0.098352274,-0.989511252,-0.090428922,-0.085724353,-0.005887811,0.026761515,-0.076804619,0.022564258,0.058784827,-1.346767199,-0.128953123,-0.114961087,-0.054460944,
0.034390498,0.164280944,0.077757992,-0.086267094,0.06291951,0.337532865,0.030055987,0.07724226,-0.134276857,0.080856668,-1.306508347,-0.189146841,0.01392353,-0.118259592,-0.032927736,0.032915213,-0.132023291,-0.052577121,-0.123412871,-0.166389238,0.153821858,-0.083042777,-0.069698113,-0.112466518,-0.017178128,-0.356288572,-1.487145041,-0.088420162,-1.071532647,-0.07503315,-0.06720594,0.067301409,0.024779458,-0.030775996,0.015737509,0.071785623,-1.267865065,-0.112717983,-0.111655901,-0.074927108,
0.046579338,0.135681664,0.089620032,-0.063974973,0.076837871,0.588225225,0.03971073,0.084913263,-0.153250064,0.083757084,-0.859196778,-0.178731777,0.142938745,-0.126916318,-0.05901719,0.035672418,-0.1288275,-0.047306011,-0.107056926,-0.151287509,0.110590762,-0.095585727,-0.065635018,-0.113429032,-0.008335156,-0.3863689,-0.850641758,-0.079183374,-0.727973831,-0.059931903,-0.043705529,0.144563418,0.020611643,-0.137010047,0.011027627,0.082338289,-0.767251453,-0.090831333,-0.107521187,-0.080102869,
0.053443223,0.087407761,0.080606856,-0.058273292,0.089947919,0.654150095,0.045799962,0.089360275,-0.142861327,0.091598083,-0.457172546,-0.168668576,0.404120109,-0.127192693,-0.082881992,0.04047451,-0.119925067,-0.045951063,-0.086293478,-0.138418882,0.056562698,-0.08573122,-0.067580815,-0.109401284,0.001913299,-0.302266878,-0.246999975,-0.066546456,-0.370079128,-0.048713486,-0.023130876,0.206930868,0.015993827,-0.248018061,0.008378118,0.088687012,-0.285183774,-0.063259464,-0.102079535,-0.07528584,
0.047275842,0.044159083,0.056480685,-0.065484325,0.101766303,0.36299424,0.045015182,0.09034996,-0.114966984,0.098859087,-0.331521219,-0.15477453,0.736247331,-0.123469382,-0.099671911,0.045984173,-0.107755267,-0.055210979,-0.064668191,-0.127834404,0.00092408,-0.06439632,-0.068729944,-0.103010216,0.015236953,-0.194014716,0.006042911,-0.046925922,-0.241485461,-0.043282593,-0.011173362,0.246804958,0.013095647,-0.274506667,0.00781188,0.090947527,-0.091497414,-0.032121968,-0.095508178,-0.068520442,
0.032356365,0.021658436,0.028165079,-0.080541255,0.11379632,-0.176564668,0.039842683,0.08731937,-0.094769404,0.106304023,-0.426475867,-0.136508004,0.8772251,-0.123306456,-0.109419462,0.048647464,-0.095500596,-0.086068025,-0.050349519,-0.118473856,-0.048100148,-0.049587516,-0.066445896,-0.099833433,0.031902706,-0.129590244,-0.066176699,-0.021766396,-0.323357109,-0.042970473,-0.008842095,0.267957934,0.011471649,-0.224141577,0.008903202,0.087729606,-0.168607664,-0.004583981,-0.08933452,-0.065319194,
0.02286821,0.013594087,0.014667641,-0.098756083,0.128402167,-0.625823797,0.036102897,0.081102175,-0.12018595,0.120124008,-0.557861532,-0.117851254,0.559577854,-0.127159757,-0.113848305,0.046108003,-0.08394272,-0.110718027,-0.045800609,-0.108878647,-0.08571473,-0.05073247,-0.061275521,-0.101812032,0.049093422,-0.116762629,-0.241979492,0.001604158,-0.454893367,-0.044633169,-0.012325712,0.277993319,0.009120229,-0.155912586,0.01069262,0.076487608,-0.328121068,0.01159678,-0.085377224,-0.065764351,
0.029093216,0.003273995,0.034869983,-0.112830197,0.148504036,-0.720091013,0.037844122,0.075726643,-0.200334048,0.143854151,-0.594501909,-0.102287576,-0.141413146,-0.12493334,-0.112780034,0.037542016,-0.073372699,-0.030789443,-0.040382965,-0.098352677,-0.110821451,-0.059249027,-0.053907274,-0.104644622,0.061594273,-0.122745254,-0.330416756,0.015928386,-0.503659288,-0.044036876,-0.015914139,0.280673114,0.005769473,-0.117440109,0.012234921,0.057114055,-0.39932371,0.016393835,-0.083102445,-0.066456352,
0.049753851,-0.014841313,0.086452377,-0.111994331,0.173686301,-0.484873883,0.044907332,0.073426616,-0.225161799,0.175802493,-0.527996306,-0.089222043,-0.785361609,-0.106580546,-0.105176901,0.023427628,-0.066154868,0.239245284,-0.020286711,-0.087509623,-0.125976509,-0.057249065,-0.0448915,-0.102918494,0.065799893,-0.113972564,-0.287776641,0.020413319,-0.447263523,-0.03845912,-0.015173467,0.271059274,0.003691449,-0.116529116,0.013201099,0.033794801,-0.341754163,0.017946608,-0.078415949,-0.064267842,
0.076390695,-0.029573893,0.142403556,-0.089789445,0.196099159,-0.161800057,0.054317098,0.06962406,0.046110737,0.214077883,-0.427639371,-0.076851373,-0.964119812,-0.075736035,-0.092395649,0.005863856,-0.064724785,0.601764423,0.017287899,-0.077542463,-0.135426897,-0.035587817,-0.035980669,-0.095357828,0.063912517,-0.081638544,-0.183570325,0.021169648,-0.345100822,-0.028205296,-0.008421814,0.236420351,0.005199882,-0.132256024,0.014135103,0.012578595,-0.228410111,0.023586576,-0.066795096,-0.058010714,
0.099906385,-0.027838192,0.175685918,-0.052900113,0.204313204,0.02534939,0.062523046,0.056962473,0.779181718,0.254941963,-0.358579538,-0.06582962,-0.658027624,-0.047466048,-0.07841697,-0.011365485,-0.067768101,0.76281701,0.064765245,-0.068897671,-0.142169649,-0.002340898,-0.029681445,-0.082154838,0.062905475,-0.039981567,-0.103130675,0.026922998,-0.264579451,-0.016159392,0.002572309,0.165803357,0.010175474,-0.140941894,0.016037008,-0.003474455,-0.149307174,0.033343064,-0.04819111,-0.048144145,
0.114864972,-0.014083552,0.181552972,-0.018630979,0.191834564,0.022737722,0.06673099,0.033700639,1.772107723,0.283489249,-0.336226448,-0.057707602,-0.189269368,-0.030756613,-0.066858014,-0.023861025,-0.070139068,0.502633673,0.110978056,-0.060807979,-0.147142403,0.023436563,-0.026760021,-0.059627375,0.068421106,-0.006063006,-0.080502671,0.042901376,-0.231375974,-0.006299487,0.015387834,0.062106046,0.015903927,-0.133323627,0.019247538,-0.016168219,-0.135832009,0.042294875,-0.027580248,-0.035991115,
0.124043474,-0.021532097,0.164136572,-0.002360767,0.159128524,-0.077837,0.066764636,0.00595537,2.438249116,0.277259781,-0.335519088,-0.052036257,0.101190498,-0.021149492,-0.058619569,-0.028993441,-0.06671758,-0.05379499,0.141438208,-0.051709474,-0.149373742,0.020657793,-0.023964863,-0.024550311,0.080473042,0.017881041,-0.093880524,0.066205277,-0.228701623,-0.001686839,0.033150791,-0.057223136,0.018917231,-0.115358576,0.022759155,-0.028517383,-0.160980914,0.045316548,-0.010841741,-0.023350245,
0.135332575,-0.084387169,0.113226285,-0.007379255,0.109201574,-0.158153207,0.067321889,-0.018037108,2.225658222,0.226625802,-0.326032674,-0.047565669,0.105454484,-0.01295664,-0.052581074,-0.027831154,-0.055296182,-0.519018761,0.143548668,-0.039184838,-0.145673479,-0.023146557,-0.014099543,0.013664673,0.095014133,0.044175261,-0.102258224,0.088305,-0.226411637,-0.002274338,0.062561407,-0.171989601,0.018104547,-0.098475642,0.025162653,-0.040227411,-0.184033436,0.039207339,-0.000821372,-0.012098152,
0.14815956,-0.144469684,0.024815356,-0.025284639,0.047899151,-0.163922689,0.075943216,-0.033943956,1.127227466,0.145718416,-0.296009698,-0.044416524,-0.053141071,-0.007798026,-0.04767186,-0.024854617,-0.036670918,-0.598794621,0.118505048,-0.019754477,-0.133137887,-0.083383086,0.009232219,0.032263341,0.107497952,0.084958807,-0.082603735,0.102493086,-0.206319666,-0.003839524,0.101720453,-0.2680486,0.016733002,-0.08938743,0.026415806,-0.047691683,-0.182422453,0.02411848,0.003598742,-0.003090169,
0.149512508,0.005212958,-0.065154327,-0.043828873,-0.010186181,-0.114220641,0.096071513,-0.041939879,-0.259820016,0.058191882,-0.252565486,-0.043064819,-0.191832299,-0.006885327,-0.043364243,-0.025825488,-0.014318799,-0.32611516,0.078523454,0.008939595,-0.11405121,-0.067290809,0.042745039,0.015488112,0.114303289,0.140088133,-0.041118393,0.107210299,-0.167261417,-0.000339812,0.138152738,-0.336545773,0.020059028,-0.086419936,0.028027992,-0.048035237,-0.155657497,0.004757675,0.005975863,0.004386423,
0.128947261,0.571664872,-0.103184394,-0.053852318,-0.044209605,-0.057856446,0.12429296,-0.044488477,-1.212119061,-0.022169524,-0.208226357,-0.042970924,-0.219188594,-0.003396534,-0.038713833,-0.034359092,0.007669221,0.031405127,0.03104151,0.044286244,-0.096196411,0.15371516,0.069887616,-0.026035799,0.114250998,0.198622809,0.001312549,0.10468264,-0.117091355,0.011328239,0.163325078,-0.372601583,0.030381374,-0.083339144,0.031196991,-0.042269572,-0.117124454,-0.011559226,0.009937283,0.011997079,
0.091256145,1.478834616,-0.072585103,-0.052057488,-0.041729361,-0.028079802,0.154750292,-0.045141925,-1.414148984,-0.091456412,-0.168589616,-0.043364718,-0.161610534,0.012367897,-0.032458994,-0.049251726,0.027207995,0.231004689,-0.022753291,0.079370012,-0.086774492,0.606753714,0.071193496,-0.062998468,0.111354168,0.249097841,0.031169879,0.100208656,-0.064547562,0.02902804,0.178879976,-0.377204712,0.044937619,-0.075807179,0.035532519,-0.033990033,-0.082825506,-0.020144694,0.016759259,0.02167073,
0.050707935,2.274834987,-0.00435484,-0.041297181,-0.00945713,-0.02535589,0.18111883,-0.047663927,-1.077546449,-0.143107662,-0.129896254,-0.043304671,-0.096719184,0.041982695,-0.024738749,-0.065783464,0.042722731,0.218186891,-0.073843703,0.10854786,-0.086625518,1.077139687,0.040217875,-0.073906031,0.113539052,0.287229889,0.052519259,0.100914317,-0.015585151,0.047096104,0.18519258,-0.357370193,0.057884093,-0.064272847,0.039722842,-0.025747275,-0.060262243,-0.021932468,0.024409666,0.034640483,
0.017885105,2.406002373,0.060816529,-0.028299787,0.033578643,-0.029323792,0.194085746,-0.05351514,-0.647237267,-0.166127813,-0.085441346,-0.040424708,-0.076569605,0.074444755,-0.017679903,-0.079427773,0.051060259,0.098562824,-0.103637983,0.129122805,-0.090677507,1.188179977,-0.010882076,-0.061897901,0.12586315,0.314111198,0.080100754,0.110930377,0.027744062,0.059713476,0.174664977,-0.323574619,0.063891904,-0.052224397,0.042725148,-0.017550945,-0.044534482,-0.020822955,0.029656743,0.049952317,
-0.005522743,1.657766292,0.08816641,-0.01847022,0.080556784,-0.022887281,0.182508743,-0.059690754,-0.434799312,-0.157227394,-0.032171664,-0.032427363,-0.096631365,0.094441225,-0.013361146,-0.087724127,0.047738101,0.006486071,-0.102147586,0.138579926,-0.093318015,0.737256232,-0.05963133,-0.048084264,0.146614792,0.328356275,0.124985008,0.128025407,0.066747505,0.064039888,0.140302062,-0.287510064,0.061275832,-0.043061257,0.044204699,-0.008300383,-0.025468887,-0.019853565,0.03072428,0.064166513,
-0.023190768,0.374884086,0.03028637,-0.011906316,0.161377695,-0.005978568,0.140449729,-0.060836147,-0.468438391,-0.128782328,0.028196158,-0.020899275,-0.117846204,0.096621113,-0.011841914,-0.089832828,0.027342819,0.00250705,-0.080107879,0.13540132,-0.092598335,-0.054523994,-0.087202249,-0.049705591,0.171838936,0.3228206,0.186028168,0.146739332,0.103609852,0.062058035,0.085568123,-0.259609132,0.052821835,-0.038152357,0.043879637,0.002062984,-0.000223558,-0.020284991,0.027611965,0.073165684,
-0.037862729,-0.769363145,-0.105788778,-0.005448836,0.319890207,0.010573911,0.074931556,-0.054131691,-0.590508986,-0.104567186,0.091338469,-0.011075262,-0.111775917,0.08945895,-0.011804314,-0.085728044,-0.01266502,0.061091826,-0.057166327,0.120253763,-0.090657373,-0.700931563,-0.088554548,-0.064132128,0.199318441,0.289470817,0.251657237,0.162296049,0.139848033,0.060548153,0.025015814,-0.244248443,0.042838851,-0.036550569,0.041084852,0.011922336,0.02241818,-0.022142716,0.021592891,0.07471417,
-0.046814024,-1.275123674,-0.114365186,0.001791199,0.523293233,0.019867487,0.00643786,-0.041592432,-0.643954866,-0.11499802,0.151753872,-0.006037935,-0.084836939,0.083895511,-0.012345246,-0.076298896,-0.064433614,0.122849632,-0.042967051,0.091612889,-0.091518903,-0.862470209,-0.072724911,-0.073696678,0.223375177,0.222889173,0.307601408,0.170866745,0.177071746,0.068652336,-0.022461226,-0.236586183,0.032616982,-0.035841024,0.036123774,0.02133918,0.033777891,-0.024630903,0.015192306,0.070319724,
-0.043487127,-1.133998483,0.336195755,0.006974752,0.610134527,0.025776481,-0.041842531,-0.027965888,-0.584964878,-0.181207092,0.202786413,-0.002930184,-0.060651364,0.080119636,-0.012850251,-0.064057104,-0.109197946,0.14975619,-0.033779495,0.045679748,-0.096228761,-0.587207562,-0.054194548,-0.063959255,0.23063964,0.1172735,0.344178945,0.171044256,0.216347906,0.092743062,-0.043549061,-0.226803743,0.01953341,-0.033258144,0.031338021,0.044032344,0.037863995,-0.026977874,0.011557816,0.064760041,
-0.028638625,-0.715971158,1.320971226,0.007599588,0.414148276,0.036692335,-0.057977518,-0.017141332,-0.472416903,-0.253940833,0.237295612,0.003298681,-0.048591333,0.066737584,-0.011612873,-0.052525253,-0.129432001,0.143464578,-0.022044639,-0.012879092,-0.098998296,-0.19269084,-0.042693311,-0.036376466,0.20867576,-0.031068423,0.358779538,0.166213826,0.255108404,0.130348916,-0.037969515,-0.209055885,0.001132925,-0.026440713,0.029292043,0.125924592,0.045863608,-0.028903918,0.013515796,0.062509884,
-0.026093452,-0.409971331,2.403276454,0.005255446,-0.028920621,0.055211734,-0.04686989,-0.011094191,-0.386900841,-0.15504156,0.249777053,0.014013784,-0.038843877,0.033943675,-0.007150602,-0.043775068,-0.122685192,0.128394726,-0.006487365,-0.065242779,-0.091677183,0.033480549,-0.038647776,-0.005714609,0.158815036,-0.209662689,0.352202124,0.162187253,0.285329073,0.16973039,-0.017264293,-0.186067359,-0.020946115,-0.014481002,0.030079409,0.33494201,0.061973153,-0.029229936,0.0232726,0.064601489,
-0.071747174,-0.362439182,2.880881413,0.005510232,-0.460079335,0.076397598,-0.024358931,-0.011070353,-0.360913881,0.331115094,0.237488829,0.026148091,-0.021411435,-0.013483938,-0.001232124,-0.037132613,-0.10221417,0.125418102,-0.000889064,-0.090915515,-0.074235521,0.025222509,-0.036244667,0.011012191,0.097881453,-0.383241977,0.320738846,0.162991955,0.295130192,0.199507553,0.003221027,-0.164755839,-0.041836056,0.000830021,0.031289811,0.675768538,0.081128067,-0.025627797,0.041302529,0.069194757,
-0.139767909,-0.475950173,2.3268528,0.01468299,-0.619281762,0.09507783,-0.000975625,-0.017475979,-0.368897181,1.186273853,0.199352378,0.035654446,0.001663824,-0.059105907,0.002405315,-0.030800123,-0.083835769,0.138681164,-0.029699099,-0.085217297,-0.058165646,-0.098222689,-0.030171235,0.000461275,0.047670341,-0.511766555,0.252722564,0.17026185,0.273131478,0.21574011,0.01290846,-0.14922905,-0.057300943,0.01581446,0.030655093,0.983927888,0.096741406,-0.017806529,0.064050251,0.073561327,
-0.06742937,-0.578136414,0.953712614,0.03406119,-0.466695286,0.111676134,0.043523244,-0.028318092,-0.366685133,1.978290768,0.135798538,0.040792202,0.021895534,-0.089508019,0.002955064,-0.023556009,-0.073859477,0.159854666,-0.083061424,-0.061771554,-0.056657388,-0.190160051,-0.019607733,-0.038067479,0.022288354,-0.578965449,0.137393223,0.183511156,0.214143528,0.215246274,0.011560352,-0.139461135,-0.065833022,0.027394266,0.028091819,0.974872144,0.105718517,-0.008935281,0.084635479,0.075403207,
0.364899823,-0.575076799,-0.504872217,0.056838008,-0.182713345,0.130442917,0.169932227,-0.038780074,-0.332718493,2.104079723,0.051832537,0.043144159,0.034019698,-0.102728413,0.003384603,-0.015327218,-0.069580194,0.179372731,-0.056512131,-0.039052639,-0.070990053,-0.189048093,-0.006549703,-0.058403919,0.022126659,-0.60004891,-0.022321609,0.198864768,0.123706795,0.191872191,0.006926289,-0.133089847,-0.067529711,0.034039019,0.024988242,0.506066697,0.108129411,-0.002129756,0.098662323,0.074314415,
1.18606402,-0.484691223,-1.337216714,0.075776098,0.014967706,0.15245302,0.417299176,-0.043358814,-0.277236552,1.334636383,-0.04059083,0.045859,0.03736698,-0.103172946,0.006081356,-0.007760458,-0.066197274,0.193455175,0.207676835,-0.026253107,-0.087343587,-0.123010818,0.007507652,0.057078058,0.036495346,-0.599676783,-0.206929268,0.21094831,0.017981011,0.147693924,0.000572877,-0.125615567,-0.06252319,0.03513921,0.022542081,-0.209975741,0.103959876,0.003334236,0.108682694,0.07213608,
2.070609804,-0.376827443,-1.355127511,0.092193173,0.038219951,0.171180615,0.683785792,-0.039636156,-0.223492097,0.082090122,-0.125778895,0.050693781,0.032545553,-0.093804003,0.010575772,-0.002707748,-0.060928561,0.204000467,0.719918051,-0.020723687,-0.089099913,-0.053304904,0.018322183,0.418451914,0.051895691,-0.58864053,-0.387413177,0.218509556,-0.082468101,0.098669684,-0.025506855,-0.111930012,-0.051858011,0.030951377,0.021295518,-0.743392627,0.090595363,0.011552183,0.119385931,0.070978027,
2.486158942,-0.303631314,-0.90788234,0.109259173,-0.052037677,0.177366046,0.724104878,-0.030697197,-0.185057215,-0.936471931,-0.190771964,0.05694175,0.021054519,-0.076944906,0.01667781,0.000271256,-0.057587807,0.214465237,1.18516773,-0.015351349,-0.073225026,-0.02216908,0.01223521,0.943088149,0.057327053,-0.565986772,-0.53512264,0.225817113,-0.161690521,0.061867415,-0.079303174,-0.090595482,-0.039463758,0.023113361,0.021405564,-0.822544962,0.065900196,0.025563543,0.127849113,0.071362064,
2.071297231,-0.273292123,-0.487741931,0.119659767,-0.141681605,0.167953245,0.376462113,-0.023824439,-0.158168186,-1.27733036,-0.229414508,0.062806344,0.005803045,-0.058959096,0.027167327,0.002183235,-0.069459095,0.225471537,1.179827816,-0.006432946,-0.052865438,-0.031508842,-0.018676004,1.279619796,0.039096594,-0.534554874,-0.631398906,0.237195613,-0.214195071,0.042080977,-0.074100866,-0.066296602,-0.031116251,0.014409869,0.022671608,-0.537092468,0.033979736,0.043795284,0.124102324,0.072537759,
0.945564806,-0.264694087,-0.35516466,0.109658411,-0.16333805,0.148489997,-0.209202196,-0.025777703,-0.130729608,-1.025247845,-0.243000576,0.066908997,-0.010908464,-0.048161574,0.045265177,0.001786489,-0.096947771,0.233239261,0.578792117,0.00166086,-0.043818168,-0.05177466,-0.031433599,1.063605908,-0.017307611,-0.504164625,-0.674071419,0.251465144,-0.24384384,0.033258418,0.191142138,-0.046751899,-0.029476648,0.007490197,0.024187419,-0.193057544,0.004650201,0.061403375,0.10357107,0.07359306,
-0.328796987,-0.253171318,-0.456691816,0.075274738,-0.126052043,0.127564215,-0.661396466,-0.037769823,-0.095071243,-0.586470519,-0.238629568,0.069021637,-0.028740767,-0.045949061,0.070776399,-0.002051053,-0.079623797,0.232206298,-0.252390115,-0.005564705,-0.049767054,-0.051178243,0.086143592,0.31598594,-0.089594591,-0.480839738,-0.675893907,0.261142017,-0.257866259,0.027896454,0.85161651,-0.036594294,-0.030037163,0.003688553,0.024555186,-0.030161062,-0.013633758,0.073967478,0.071968503,0.073796,
-1.148676203,-0.226667439,-0.589320566,0.029124769,-0.078052842,0.109211405,-0.722390952,-0.054149104,-0.052673769,-0.313961171,-0.225489044,0.070485948,-0.047205408,-0.036680079,0.099500017,-0.007013394,0.09812057,0.219083795,-0.765958986,-0.036869752,-0.060124923,-0.02252371,0.429017435,-0.502781391,-0.071124821,-0.459655508,-0.655245503,0.256129365,-0.261895349,0.022625237,1.72013876,-0.034313758,-0.023928233,0.002908993,0.023301855,-0.076305815,-0.018800686,0.079789491,0.03630762,0.073157998,
-1.28903511,-0.18897442,-0.606185677,-0.010103809,-0.055069668,0.089936414,-0.452500083,-0.065774228,-0.010559031,-0.296192567,-0.210744265,0.073380579,-0.063336458,0.022643263,0.125442643,-0.009593847,0.471503353,0.193893642,-0.711339769,-0.047473861,-0.061362339,0.014789783,0.909479053,-0.89416105,0.206181484,-0.431348607,-0.627324257,0.230442104,-0.258764876,0.018488047,2.280371818,-0.033960899,-0.004191673,0.004177323,0.021681612,-0.2067306,-0.014962543,0.080150189,9.36E-05,0.073712288,
-0.971946326,-0.152513664,-0.501811678,-0.033225431,-0.059140301,0.063644384,-0.12088075,-0.065737695,0.024846147,-0.405474181,-0.197405922,0.078435757,-0.073543491,0.199550058,0.14329578,-0.009324504,0.84746895,0.157340024,-0.287517047,0.08383684,-0.049966382,0.037017562,1.20743464,-0.735756765,0.840599655,-0.394382125,-0.600689904,0.188355051,-0.249127935,0.019029099,2.060369786,-0.028830975,0.039907533,0.006252462,0.021332049,-0.289351733,-0.010188928,0.077672243,-0.031365935,0.07899469,
-0.595679431,-0.126872466,-0.35963932,-0.044373025,-0.072210548,0.029447704,0.047971385,-0.054104965,0.05166485,-0.477553546,-0.184830271,0.084046588,-7.76E-02,0.517673726,0.148519301,-0.008077557,0.896517322,0.108361621,0.114161666,0.447427655,-0.033475139,0.039932546,1.006251632,-0.30284105,1.688954815,-0.358034334,-0.576326005,0.143942284,-0.232481375,0.027211618,1.078077507,-0.015064348,0.142381629,0.008320596,0.023024473,-0.27840092,-0.012092452,0.074400739,-0.050045249,0.090669502,
-0.422156323,-0.113314992,-0.25645951,-0.051020637,-0.078664204,-0.006916084,0.018803639,-0.037879026,0.072434525,-0.443378707,-0.170888456,0.087592859,-0.079112654,0.82773959,0.136152881,-0.006598332,0.478588585,0.045457446,0.251898027,0.911716184,-0.020078836,0.040464029,0.332373205,0.035569351,2.309751354,-0.332782502,-0.549223744,0.112405364,-0.209220176,0.042327254,-0.121139274,0.005990299,0.350819674,0.010661435,0.027800677,-0.211187546,-0.020951889,0.071382082,-0.052557331,0.106043951,
-0.461165944,-0.108220966,-0.213180958,-0.053992949,-0.073316617,-0.039359704,-0.09781281,-0.025243139,0.090677114,-0.339009055,-0.154173671,0.087789525,-0.082024999,0.820902066,0.102984427,-0.004628509,-0.165935787,-0.029125726,0.155101174,1.119467273,-0.010802213,0.055723005,-0.408193815,0.104733163,2.186441158,-0.318575221,-0.513740132,0.100957763,-0.182922986,0.057257257,-0.908853523,0.02805888,0.645568988,0.014150531,0.03758614,-0.1493552,-0.027607745,0.069319218,-0.043839946,0.119926115,
-0.565796671,-0.107671328,-0.205390355,-0.049276881,-0.056638053,-0.067504984,-0.17749531,-0.019804484,0.106626933,-0.238735667,-0.134956706,0.08696107,-0.087991113,0.32658223,0.052744324,-0.003410025,-0.613420316,-0.106921066,0.003070485,0.804786113,-0.002384592,0.084379725,-0.775456956,-0.022890249,1.175563648,-0.303898996,-0.469349668,0.106801933,-0.159787652,0.053885954,-1.045168842,0.043641545,0.861477225,0.018522747,0.052085985,-0.126715341,-0.023033825,0.068690651,-0.02518455,0.128256219,
-0.599588394,-0.108100662,-0.199715858,-0.044359404,-0.032176492,-0.095923715,-0.173533312,-0.020697029,0.11522689,-0.188421964,-0.114635508,0.092097825,-0.095680334,-0.415489653,-0.002249745,-0.005154044,-0.628076059,-0.175916265,-0.060708673,0.108929785,0.00706793,0.110983405,-0.651489487,-0.168549881,-0.248098688,-0.276478053,-0.423911203,0.121388169,-0.144720667,0.007656659,-0.750960331,0.048838422,0.769289388,0.022336512,0.066281935,-0.136550241,-0.010567043,0.068573435,0.035477756,0.128661944,
-0.532311888,-0.106597804,-0.181757728,-0.077570532,-0.008296828,-0.127098549,-0.118329071,-0.025445544,0.108557289,-0.183006802,-0.09460248,0.110119795,-0.10155054,-0.917042469,-0.04685565,-0.009630982,-0.319171742,-0.226726405,-0.014415147,-0.508895295,0.019261389,0.125441535,-0.26827879,-0.210698016,-1.306247019,-0.235866546,-0.390133446,0.135519303,-0.138116768,-0.067269348,-0.418111739,0.045346766,0.308289083,0.025290771,0.073922381,-0.152412636,-0.002418989,0.066503796,0.223096563,0.119205254,
-0.421380042,-0.102491585,-0.158713591,-0.18883045,0.004828917,-0.155393717,-0.067637542,-0.030301542,0.082072631,-0.18794308,-0.075543182,0.137468919,-0.101953877,-0.88871069,-0.071818361,-0.01262672,0.019616033,-0.256922139,0.078340482,-0.68442741,0.039092272,0.132950149,0.047533028,-0.147760198,-1.526448934,-0.197147109,-0.373711774,0.136377018,-0.135820828,-0.048421143,-0.289877123,0.039035834,-0.289867272,0.028843955,0.073163922,-0.155014619,-0.003538248,0.060721593,0.627783706,0.100059444,
-0.335423324,-0.096592449,-0.140430881,-0.307274587,0.003703829,-0.170196382,-0.04929376,-0.030595311,0.040474692,-0.175336287,-0.057488588,0.157582212,-0.094901929,-0.463994824,-0.078009325,-0.0084851,0.172606841,-0.270180036,0.146917245,-0.432467965,0.069874431,0.144388811,0.130385446,-0.053481417,-1.047302553,-0.179068776,-0.365248681,0.102132671,-0.131103726,0.269028492,-0.3578104,0.036885771,-0.67473603,0.033946161,0.067114494,-0.14290639,-0.006677575,0.051754521,1.207506183,0.075918698,
-0.299368614,-0.08773899,-0.123427834,-0.182683001,-0.004545191,-0.165585908,-0.053640906,-0.024024058,-0.003088712,-0.143392238,-0.040677029,0.154105839,-0.080759639,-0.012696658,-0.073416298,0.005677215,0.126313868,-0.272024646,0.163470486,-0.052349683,0.103900719,0.162673939,0.033140121,0.004759868,-0.393060328,-0.184476615,-0.347365819,0.027805577,-0.118186309,0.972921443,-0.472561119,0.043392105,-0.677666305,0.039565393,0.059379131,-0.125776101,-0.004074883,0.042087373,1.668715111,0.05317587,
-0.293489004,-0.071431626,-0.096570873,0.44108866,-0.007662408,-0.14527576,-0.057385686,-0.012522057,-0.035318753,-0.108309955,-0.026246826,0.125282664,-0.062222263,0.191273338,-0.06606394,0.027623938,0.006554968,-0.266398841,0.146435184,0.171133182,0.123289571,0.181798435,-0.091484378,0.011949601,-0.014757961,-0.195898035,-0.31134939,-0.014329793,-0.096638454,1.818296875,-0.508840935,0.057766235,-0.419986589,0.044022045,0.050177449,-0.112901754,0.003838993,0.035056889,1.584345921,0.034852752,
-0.285655387,-0.04405612,-0.056179296,1.490241978,0.00315783,-0.119290448,-0.04832773,-0.000470753,-0.050435812,-0.082890812,-0.015357879,0.084097205,-0.042763674,0.131142074,-0.059400638,0.051431335,-0.060799555,-0.255277837,0.132086411,0.163732421,1.14E-01,0.195442598,-0.135860459,-0.004653956,-0.015423236,-0.193392397,-0.26692956,0.141684715,-0.072894904,2.279984738,-0.446603047,0.074053425,-0.156013831,0.046852019,0.036695601,-0.10686663,0.012930901,0.032640932,0.782140907,0.021341228,
-0.25998024,-0.008799776,-0.013981902,2.440421896,0.028299772,-0.098439496,-0.03009036,0.006058743,-0.050774094,-0.065119702,-0.007631031,0.048193274,-0.025843043,-0.031781429,-0.053543347,0.0718746,-0.038690513,-0.23999512,0.141918438,0.036160418,0.079858797,0.202958239,-0.094037133,-0.01155742,-0.209219972,-0.171303882,-0.232734408,0.650947201,-0.055944497,1.943710193,-0.345352177,0.085469178,-0.053211475,0.048648445,0.016673623,-0.10444175,0.021678984,0.033747033,-0.382644653,0.014265814,
-0.22090435,0.023945796,0.007261741,2.633284673,0.059241212,-0.090579453,-0.011942896,0.001020439,-0.042659083,-0.045210007,-0.001358698,0.030264999,-0.015034026,-0.134782685,-0.048342258,0.088091037,0.029073915,-0.222090615,0.172398522,-0.063875102,0.036249914,0.208961348,-0.02348687,0.004504321,-0.358434886,-0.136797198,-0.215665477,1.470530591,-0.050384331,0.905026019,-0.271850842,0.090026994,-0.106990205,0.049825398,-0.008566443,-0.100858094,0.030407115,0.035544448,-1.256325452,0.01507613,
-0.179375853,0.04209084,-0.006596393,1.807483117,0.08230718,-0.096834081,0.000665676,-0.013323987,-0.032082074,-0.018160108,0.004474981,0.033058527,-0.010620061,-0.124449356,-0.041863393,0.102992889,0.082757387,-0.203313087,0.209634222,-0.068495273,0.001425649,0.218506746,0.022480813,0.034125613,-0.355089661,-0.10073772,-0.204471687,2.236142899,-0.053692607,-0.262417666,-0.249348774,0.092164268,-0.208611662,0.050238136,-0.034238793,-0.093481683,0.039217213,0.035720888,-1.422749381,0.025946434,
-0.142762727,0.038486169,-0.040531489,0.366070127,0.086481664,-0.108475107,0.008405929,-0.02306544,-0.021538113,0.013429651,0.009478657,0.04858342,-0.006860949,-0.047910802,-0.020626733,0.118435547,0.099718398,-0.185348605,0.2451378,-0.004264183,-0.01511189,0.230138971,0.030788124,0.061629429,-0.24244238,-0.072369567,-0.186046802,2.393214652,-0.059434224,-0.970128036,-0.256281215,0.099213625,-0.260709093,0.049611717,-0.054756632,-0.083375931,0.048734363,0.032758876,-0.991992781,0.069167953,
-0.115911596,0.015235123,-0.058620469,-0.908804437,0.071145198,-0.111985847,0.015638012,-0.0154428,-0.009475877,0.04378325,0.013407491,0.056290159,0.002821837,0.021733515,0.056800013,0.130182012,0.098633535,-0.169353884,0.276629695,0.06540273,-0.014367811,0.23372197,0.021165127,0.08137297,-0.124292784,-0.056703305,-0.162067448,1.627314486,-0.061479148,-1.040117932,-0.256957161,0.115891723,-0.240217978,0.048016388,-0.066466189,-0.073906589,0.059350743,0.026194256,-0.41313738,0.211078053,
-0.102821648,-0.015963822,-0.041538698,-1.452702823,0.047178693,-0.101840538,0.026327327,0.007373013,0.006358217,0.066592246,0.016710528,0.024032366,0.018550107,0.045967301,0.254389768,0.127994099,0.107308617,-0.155581557,0.304158328,0.10016031,-0.004125963,0.217765247,0.019200545,0.099039252,-0.06763713,-0.053090815,-0.144203438,0.234404324,-0.056072815,-0.723243872,-0.230011723,0.142376228,-0.184628772,0.045855712,-0.068639166,-0.067181759,0.068789351,0.018801148,-0.075775969,0.540774644,
-0.10386591,-0.038762174,-0.007333729,-1.271503586,0.028564514,-0.085844074,0.040759977,0.03113043,0.025179372,0.078182544,0.019268492,-0.055387562,0.033965429,0.032544962,0.572869269,0.102542307,0.133528927,-0.143557594,0.330132452,0.100745918,0.006735814,0.17819146,0.035877483,0.121622332,-0.069050998,-0.055471858,-0.137335011,-1.035858725,-0.043138178,-0.39848977,-0.177253378,0.176640685,-0.141199813,0.043618675,-0.063040164,-0.0618441,0.073090685,0.016616061,-0.070640319,1.065433928,
-0.114241498,-0.042256409,0.012210613,-0.789943735,0.020425069,-0.075568742,0.055445015,0.044255402,0.043297838,0.08310268,0.020553451,-0.085760659,0.042146512,0.013953742,0.829511209,0.054318132,0.164542519,-0.132477951,0.355359254,0.089873385,0.013134042,0.119319766,0.064953787,0.148420983,-0.084676673,-0.054618528,-0.135442973,-1.565438673,-0.026992402,-0.281520528,-0.116262892,0.211986273,-0.129480054,0.041766943,-0.053334421,-0.054947942,0.070711941,0.023343132,-0.237751218,1.572888809,
-0.126650132,-0.028958338,0.0051719,-0.439706648,0.015718097,-0.074356726,0.066441303,0.048226327,0.056908115,0.093448072,0.021029989,0.14905987,0.04053038,0.018126024,0.729932662,-0.003491883,0.18510216,-0.121620587,0.372075851,0.086854581,0.015792848,0.050177291,0.09348802,0.170865716,-0.077051124,-0.043522951,-0.131973742,-1.295474048,-0.014176642,-0.350814332,-0.06499873,0.2317324,-0.138511938,0.040214978,-0.044073498,-0.045738652,0.064337654,0.035037371,-0.370763277,1.65606461,
-0.134718523,-0.011046565,-0.013924344,-0.376772363,0.003230793,-0.076738455,0.072695703,0.053540752,0.064154595,0.117517557,0.02145059,0.815772935,0.032590622,0.048331021,0.187633375,-0.051771764,0.192716519,-0.110871781,0.367631498,0.09718274,0.019163448,-0.017939217,0.113180822,0.181389834,-0.038225603,-0.023601878,-0.124870247,-0.647875083,-0.008963022,-0.462941778,-0.029050141,0.217912832,-0.146989895,0.038182259,-0.038059275,-0.036222371,0.058298922,0.04283549,-0.376055685,1.037452259,
-0.133929491,0.001848235,-0.021238259,-0.490617889,-0.02348927,-0.076974208,0.076625807,0.068323768,0.065700429,0.148756821,0.021199613,1.760126791,0.02693077,0.084644371,-0.489089227,-0.077177521,0.200272562,-0.100376502,0.336576833,0.11688716,0.025785144,-0.073520357,0.124628685,0.182440756,0.016535151,-0.003983318,-0.111128428,-0.121886805,-0.010557041,-0.504228144,-0.001311095,0.169730754,-0.142696171,0.035211361,-0.033975232,-0.028410932,0.05496536,0.041321761,-0.289340864,-0.07646581,
-0.12123443,0.009150394,-0.006499878,-0.591798508,-0.062182511,-0.07443501,0.082463056,0.094232898,0.06472815,0.169103024,0.019376347,2.447388694,0.032345329,0.104342385,-0.849485832,-0.07992232,0.224013689,-0.088397302,0.283658651,0.14080737,0.029660401,-0.108679584,0.133763775,0.185315661,0.067785878,0.008331079,-0.086313586,0.04528073,-0.013919626,-0.458025684,0.029579306,0.10678284,-0.127564569,0.031765856,-0.027947685,-0.022640086,0.053300631,0.032963064,-0.19441002,-1.074616564,
-0.095722998,0.014326673,0.017334006,-0.577179167,-0.102447483,-0.071291998,0.092998529,0.128821934,0.066113777,0.164832789,0.017215884,2.318365535,0.051207417,0.101588636,-0.716558483,-0.071367233,0.265540678,-0.069933699,0.21437873,0.166420658,0.019544361,-0.123745477,0.145557401,0.200254695,0.106721799,0.015725188,-0.053624862,-0.066964444,-0.01292758,-0.374237401,0.071272091,0.05373537,-0.110679942,0.028965044,-0.017903011,-0.017982238,0.050018523,0.024421464,-0.144701341,-1.439155244,
-0.06073115,0.018436291,0.027518494,-0.467444515,-0.132734428,-0.068894316,0.106438366,0.164233535,0.072768306,0.138584566,0.018004308,1.299335289,0.078118229,0.090004916,-0.299607378,-0.063220864,0.306485115,-0.040615497,0.128109698,0.193138662,0.006390835,-0.128074599,0.16126314,0.227246248,0.138144614,0.024667955,-0.025905705,-0.236432544,-0.003874476,-0.304898782,0.123273278,0.025573502,-0.099022672,0.028166087,-0.005117772,-0.012914995,0.043224343,0.020315716,-0.141284578,-1.138975874,
-0.025229313,0.021395474,0.013746952,-0.342005352,-0.149921152,-0.067160074,0.116646125,0.185843212,0.080401814,0.106620106,0.024130564,-0.07247187,0.104125436,0.088156989,0.053154031,-0.058882074,0.323674818,-0.003129201,0.023533719,0.220832567,0.056766393,-0.133261832,0.17920576,0.253477054,0.172916196,0.037034693,-0.01232222,-0.300731876,0.012249315,-0.267910907,0.177862375,0.022886691,-0.093107615,0.029928821,0.012191522,-0.00579365,0.035017365,0.020740611,-0.153475912,-0.561429882,
-0.000723843,0.025603127,-0.01125831,-0.258143939,-0.16013655,-0.065000824,0.117038926,0.17928043,0.078604553,0.085682918,0.033941254,-1.074616738,0.120260519,0.102492007,0.150105578,-0.055243946,0.309379675,0.033520447,-0.091003958,0.248468561,0.268527986,-0.144187353,0.196047608,0.261491682,0.217124698,0.050574561,-0.007530969,-0.239837308,0.029614362,-0.252105502,0.225761894,0.034618695,-0.089212998,0.033008098,0.055224184,0.004021199,0.028736913,0.022675588,-0.149636218,-0.138571919,
0.005511989,0.033940778,-0.021614039,-0.219935824,-0.169963469,-0.061579159,0.104519228,0.139973844,0.061783433,0.081764996,0.04224451,-1.345308343,0.118489848,0.124575813,0.040478727,-0.050206902,0.274974891,0.061520767,-0.195580842,0.272626801,0.651125014,-0.156793317,0.207593418,0.245033151,0.266186346,0.063990107,0.001319035,-0.129611991,0.040714571,-0.238988014,0.260832501,0.046011051,-0.084598644,0.035050455,0.176742738,0.014380239,0.025189958,0.023076468,-0.118621478,-0.046734855,
-0.005262175,0.044583319,-0.004178407,-0.199594107,-0.180301387,-0.058695725,0.080415798,0.075492756,0.038091071,0.089674759,0.044895392,-1.050418787,0.093605182,0.142702637,-0.107395935,-0.04351662,0.236110151,0.077216876,-0.269807887,0.287735083,1.01005811,-0.1623995,0.209923567,0.214102068,0.307323815,0.077881788,0.020523402,-0.050059777,0.041682104,-0.217646917,0.280252868,0.047586693,-0.079335879,0.034547494,0.427168849,0.020487734,0.02366293,0.021988875,-0.072399207,-0.182381752,
-0.024045337,0.050472979,0.025914032,-0.172999916,-0.188256021,-0.059705817,0.049477412,0.002137975,0.022952606,0.101029194,0.042260773,-0.62172131,0.048092558,0.150706988,-0.167790084,-0.022613309,0.196289953,0.078969359,-0.306665182,0.288483457,1.034351523,-0.154263457,0.202611785,0.181516775,0.326952173,0.092657952,0.044453225,-0.028555787,0.035063234,-0.187975591,0.282016461,0.039119862,-0.074238599,0.031800623,0.757748091,0.018509852,0.023886249,0.023538218,-0.031235978,-0.338117374,
-0.038313617,0.04600371,0.042539899,-0.137184875,-0.189718465,-0.064693094,0.018474637,-0.05974238,0.022925416,0.110324525,0.038497432,-0.388229556,-0.004276208,0.146688324,-0.126700843,0.060908778,0.14462879,0.067912588,-0.314261677,0.271667328,0.593735628,-0.133656506,0.191135653,0.149644065,0.315850151,0.106405855,0.060829237,-0.041939572,0.028060162,-0.155119476,0.263048968,0.027562805,-0.069745284,0.028299098,0.959624467,0.009392588,0.025413842,0.033530947,-0.00588856,-0.382066978,
-0.038759855,0.034655488,0.037484892,-0.104137377,-0.179678502,-0.069052619,-0.0068434,-0.092905267,0.028236899,0.115009828,0.038805451,-0.404549845,-0.044220585,0.131282431,-0.045949114,0.280363116,0.070065322,0.047490234,-0.306167876,0.235621643,-0.077347545,-0.110147413,0.182443062,0.111685417,0.268899183,0.114795644,0.062030824,-0.052414303,0.028469564,-0.120947262,0.220055304,0.022165602,-0.066195825,0.025630921,0.788789851,-0.001100167,0.027672582,0.055238627,0.007931389,-0.315111053,
-0.025575787,0.028917219,0.026219433,-0.084759642,-0.155946534,-0.067377238,-0.025318639,-0.091549665,0.022666067,0.114562761,0.046090819,-0.5290528,-0.061604809,0.108329948,0.010732185,0.625749882,-0.023761267,0.016896437,-0.292996954,0.178849539,-0.56395455,-0.094610683,0.176689919,0.062789207,0.183321406,0.115587212,0.053725301,-0.038609981,0.040539414,-0.081416761,0.153319455,0.026515307,-0.063428103,0.024382821,0.226205556,-0.006749261,0.030761917,0.085969227,0.020582088,-0.214964176,
-0.008328302,0.040422562,0.029223743,-0.079927703,-0.124783005,-0.057735551,-0.040532187,-0.063597103,0.001048854,0.110634562,0.058245176,-0.60417042,-0.064823999,0.083362775,0.022857354,0.880419581,-0.120146184,-0.029290422,-0.280112195,0.100723595,-0.631498723,-0.091735051,0.165375005,0.009160217,0.059767428,0.113337071,0.050323798,-0.002225846,0.062465685,-0.03206805,0.069711793,0.025222022,-0.060493217,0.023801762,-0.426970471,-0.005976151,0.035090096,0.115356405,0.036941225,-0.150447935,
0.001778683,0.068529401,0.052370646,-0.083426643,-0.099455744,-0.04270603,-0.057488668,-0.020057477,-0.024347305,0.105623683,0.069670945,-0.573614077,-0.072233336,0.061532835,0.009255179,0.734369697,-0.201035811,-0.088563156,-0.268256606,0.004668603,-0.380580312,-0.097607534,0.138599972,-0.035137626,-0.093779689,0.116260575,0.060678861,0.042537632,0.087601591,0.025834504,-0.019570717,-0.014231137,-0.056359399,0.022652544,-0.787229772,-0.002206427,0.041865795,0.12784632,0.054685145,-0.136627161,
0.001379668,0.10039645,0.085455895,-0.08816228,-0.090974768,-0.027128308,-0.078990876,0.049713278,-0.035955701,0.100188944,0.076494011,-0.480273967,-0.091971793,0.045478753,-0.0022501,0.134324393,-0.253977882,-0.142946522,-0.255698975,-0.099449796,-0.090691246,-0.103705721,0.093445661,-0.060656637,-0.258699857,0.127562173,0.080846765,0.081832433,0.109424099,0.085334974,-0.103792545,-0.08255503,-0.050407051,0.019985401,-0.717514047,0.000217701,0.053028786,0.113190766,0.070621651,-0.146336112,
-0.002121016,0.123760186,0.115756494,-0.088535832,-0.100161084,-0.015470828,-0.103735809,0.187886453,-0.027682654,0.092580087,0.079127597,-0.395278054,-0.112361859,0.032215009,0.001852622,-0.564141376,-0.276087677,-0.170928076,-0.240690176,-0.196718136,0.033337037,-0.104056065,0.035968463,-0.068859247,-0.408653769,0.142579593,0.100900016,0.111273506,0.125170719,0.138298957,-0.17447841,-0.043953445,-0.041217528,0.01581147,-0.399320634,-0.000542213,0.068123086,0.077399655,0.084620161,-0.14824959,
0.001145003,0.135486957,0.13651039,-0.080949873,-0.117343846,-0.010609631,-0.126753741,0.405276483,-0.008604097,0.08031064,0.080206406,-0.356289694,-0.115063834,0.01433065,0.018462796,-0.901004216,-0.277664502,-0.16565819,-0.221922883,-0.272214043,-0.021179468,-0.098193915,-0.022856048,-0.067245397,-0.520286408,0.155354408,0.115257315,0.138332214,0.134902062,0.179271078,-0.225242153,0.324058882,-0.025600219,0.011952296,-0.122194793,-0.003087963,0.084156338,0.038239458,0.098016607,-0.132423708,
0.011840476,0.135356745,0.141473118,-0.064867077,-0.127571031,-0.012264474,-0.14194214,0.581032212,0.009311402,0.063536103,0.082153504,-0.354178397,-0.095829197,-0.012274078,0.03791148,-0.729180454,-0.275818376,-0.139106757,-0.199056549,-0.317483801,-0.137259181,-0.088355149,-0.07305965,-0.063679372,-0.584182636,0.164498395,0.125035767,0.174432858,0.141262216,0.207640303,-0.252248928,1.093072683,-0.001319757,0.011078402,-0.044623236,-0.004301817,0.101160274,0.00846442,0.111261011,-0.107983609,
0.021520949,0.119368315,0.121920372,-0.042894275,-0.119549643,-0.015782114,-0.145439048,0.504397229,0.02645129,0.048826739,0.086218399,-0.357556189,-0.066303581,-0.041654166,0.053035443,-0.28948201,-0.278251312,-0.110356534,-0.175023698,-0.334142415,-0.200241837,-0.077100062,-0.109566043,-0.06428731,-0.607005116,0.170866751,0.133730449,0.223155052,0.149494433,0.228068124,-0.254730394,1.955185555,0.028731715,0.013999078,-0.129318287,-0.002197027,0.122332297,-0.011137634,0.123934687,-0.08645964,
0.024317404,0.087245388,0.078370431,-0.019747914,-0.095889202,-0.015441594,-0.137584129,0.105456483,0.055075017,0.047578244,0.091439698,-0.34303019,-0.028819794,-0.061526251,0.062385231,0.062845237,-0.276243762,-0.09126513,-0.15476597,-0.331306228,-0.177792343,-0.068616464,-0.132353447,-0.070196022,-0.603982064,0.173609359,0.144046051,0.277558313,0.160018694,0.24695282,-0.23588635,2.329436904,0.056555626,0.018574323,-0.24245274,0.002495577,0.143190936,-0.023865587,0.135113968,-0.07091256,
0.023677076,0.051776206,0.027940203,-0.00159781,-0.072815157,-0.010239377,-0.122432278,-0.399790907,0.102114468,0.065780391,0.09486979,-0.307851741,0.056876906,-0.065537637,0.069236992,0.149264471,-0.257634738,-0.081448295,-0.139155018,-0.3195895,-0.110219793,-0.067866382,-0.144704779,-0.075116237,-0.589257103,0.171972397,0.156464218,0.327175521,0.162571121,0.265076796,-0.204045548,1.832209401,0.074172998,0.021806161,-0.283627588,0.007449634,0.147030913,-0.030532782,0.141907834,-0.057188197,
0.026286544,0.029976888,-0.010116758,0.00556023,-0.06587904,-0.003997077,-0.105815798,-0.679534857,0.159192652,0.097498686,0.094874243,-0.263081997,0.267121046,-0.058778574,0.07791379,0.033389346,-0.223413196,-0.075642261,-0.123356774,-0.30657196,-0.053096299,-0.074214479,-0.151068681,-0.070555929,-0.570949516,0.168729574,0.16759681,0.363304021,0.145851151,0.27241817,-0.171512816,0.672055803,0.078820176,0.022745968,-0.242628956,0.010896594,0.120703539,-0.030917992,0.139349093,-0.040577393,
0.032973633,0.024386149,-0.031313742,0.000111499,-0.077834758,0.000668524,-0.092655162,-0.590713547,0.211050318,0.133361676,0.093409677,-0.220142742,0.605920246,-0.04983537,0.089057384,-0.112689256,-0.187400897,-0.078335598,-0.103086186,-0.294884962,-0.032306816,-0.080443644,-0.154393469,-0.054862433,-0.550700186,0.168758637,0.172455715,0.379749199,0.110560884,0.252370849,-0.149667417,-0.489231009,0.073339771,0.022893808,-0.171791426,0.012672586,0.07056345,-0.025232181,0.123700457,-0.020125152,
0.038190441,0.020723887,-0.042401379,-0.012374996,-0.0978929,0.00582777,-0.084610596,-0.278334789,0.24298193,0.168480127,0.09351191,-0.183250369,0.868043154,-0.041878203,0.098329451,-0.168328795,-0.162225338,-0.108374724,-0.080172638,-0.282558967,-0.038332355,-0.08205291,-0.154773826,-0.034147235,-0.525520996,0.174871562,0.170600223,0.373276872,0.067830482,0.193123275,-0.142428844,-1.083897375,0.062949291,0.023895118,-0.125015963,0.013887184,0.01605486,-0.002892552,0.09466455,0.001884304,
0.037602349,0.00537216,-0.048182895,-0.023208142,-0.108282113,0.014661548,-0.079925125,-0.003092937,0.239588732,0.194212722,0.095691311,-0.150099042,0.734830759,-0.032609113,0.100558565,-0.125182907,-0.149146488,-0.166807975,-0.062047494,-0.26624135,-0.047209034,-0.080860392,-0.151124812,-0.016250123,-0.49189669,0.185680222,0.167670143,0.339710238,0.029027552,0.09604026,-0.143916252,-1.031161876,0.052459917,0.025508382,-0.118554521,0.016183715,-0.02659514,0.084579056,0.055029113,0.023090458,
0.033411995,-0.019475402,-0.048399077,-0.027957744,-0.096915709,0.025586243,-0.075510987,0.083942802,0.191296162,0.191971671,0.098109332,-0.115279463,0.132027635,-0.01922373,0.094719164,-0.046488512,-0.140844267,-0.177553659,-0.05601537,-0.245635157,-0.042537167,-0.076550344,-0.143455121,-0.007583758,-0.450810043,0.196217097,0.168915182,0.26659929,0.001185929,-0.02340792,-0.143867269,-0.661115524,0.045085139,0.026098102,-0.13389024,0.020782416,-0.051591509,0.33081575,0.011012811,0.042558497,
0.031098108,-0.038465667,-0.042345065,-0.027494647,-0.068837688,0.032143685,-0.069558399,0.013327152,0.10645295,0.147074977,0.099584122,-0.072753235,-0.59076651,-0.002018524,0.084098527,0.00562676,-0.131321073,0.002573848,-0.060786298,-0.224544057,-0.023343982,-0.061992448,-0.132585648,-0.010574695,-0.409477161,0.20147247,0.17323378,0.138353289,-0.011537447,-0.140712066,-0.135612017,-0.358831118,0.041663355,0.024895428,-0.144833039,0.027397103,-0.06096629,0.804771623,-0.028317795,0.059302401,
0.0343143,-0.039083966,-0.032074159,-0.022958225,-0.043182388,0.030518912,-0.062684179,-0.090922365,0.009054258,0.064399081,0.100887468,-0.018962128,-0.956282724,0.015682656,0.072027714,0.013131491,-0.12039429,0.416375789,-0.064171938,-0.206977187,0.001711332,-0.030423507,-0.11832439,-0.019703752,-0.376583469,0.201375941,0.176502317,-0.044285069,-0.007720717,-0.231934862,-0.119186419,-0.291081674,0.040415206,0.023130839,-0.139412602,0.034385712,-0.058440152,1.405725247,-0.054759855,0.071144192,
0.045329083,-0.029669637,-0.029469748,-0.014722374,-0.036861199,0.025493487,-0.05686267,-0.133986022,-0.075454908,-0.036205224,0.103111187,0.043646391,-0.796174158,0.029900537,0.058880083,-0.001948056,-0.109401159,0.82878047,-0.052537523,-0.193152105,0.024325698,0.013828684,-0.099265044,-0.023689521,-0.354739903,0.201988401,0.178972738,-0.253042721,0.008775474,-0.284012289,-0.099144204,-0.386798285,0.038881608,0.022506042,-0.122368536,0.040096959,-0.047990198,1.783645375,-0.064221553,0.076242817,
0.065415284,-0.045199329,-0.070051433,-0.006157622,-0.049671237,0.025629757,-0.053627128,-0.103836122,-0.129204944,-0.134583842,0.106878665,0.106923941,-0.344972478,0.037817795,0.043755365,-0.009217725,-0.097987935,0.852736525,-0.02182317,-0.180310197,0.041981646,0.052409058,-0.074764812,-0.0154765,-0.338198908,0.211010357,0.185482005,-0.443314765,0.028545979,-0.299619729,-0.081159346,-0.489102331,0.036721847,0.023055306,-0.104402286,0.043622628,-0.033053453,1.529250065,-0.05760979,0.075538714,
0.091195057,-0.111997189,-0.19277479,-0.002556641,-0.065613189,0.032777067,-0.053398608,-0.045029101,-0.144352292,-0.214986676,0.11452648,0.161715672,0.03128567,0.037958622,0.027784645,0.002906299,-0.08658783,0.35630652,0.020563415,-0.166500058,0.056541913,0.064293802,-0.047132051,-0.000945832,-0.318025659,0.231828178,0.200110863,-0.57787053,0.041697665,-0.293257953,-0.069021281,-0.503432027,0.035577184,0.023431821,-0.092290242,0.044872261,0.001832603,0.574507331,-0.041141505,0.072445297,
0.115928405,-0.166320833,-0.337319687,-0.004785693,-0.070901186,0.039669362,-0.055858791,-0.004136519,-0.125056871,-0.263640684,0.131007971,0.201923114,0.136000878,0.03037344,0.013931688,0.024443585,-0.076047983,-0.333733376,0.062312239,-0.152032865,0.069933024,0.042908146,-0.021440736,0.006493513,-0.289254019,0.259440163,0.224058598,-0.645825579,0.04426018,-0.281380267,-0.062570954,-0.438990256,0.036331255,0.023877718,-0.086645673,0.044776208,0.116420993,-0.627753923,-0.025137909,0.068834378,
0.136039302,-0.022910465,-0.257745214,-0.007720269,-0.067317905,0.039144524,-0.059763561,0.003306674,-0.087171722,-0.272901545,0.158069978,0.224767692,0.0209981,0.018617005,0.003093377,0.040321981,-0.063593091,-0.724203586,0.095787151,-0.137805375,0.082354294,0.000680779,-0.002018787,0.002382259,-0.253600544,0.279548107,0.255584819,-0.663841611,0.037901313,-0.273254411,-0.059101951,-0.358707848,0.037694743,0.027829214,-0.084391131,0.044894241,0.400269372,-1.426709957,-0.019015163,0.062033975,
0.149549743,0.486736427,0.330980708,-0.005977344,-0.064557349,0.033209404,-0.06234947,-0.008753517,-0.057417261,-0.248784216,0.186272277,0.229153931,-0.137813209,0.011788579,-0.007711024,0.045706453,-0.046017118,-0.608582561,0.12116586,-0.123978798,0.094253187,-0.041677546,0.010528843,-0.0052329,-0.216619072,0.275205658,0.286657771,-0.658396854,0.01822412,-0.268017355,-0.056195655,-0.310711262,0.037870513,0.038410073,-0.081793429,0.04586087,0.882836171,-1.493407654,-0.024664344,0.047117591,
0.149304376,1.282728003,1.404988871,0.000952543,-0.065145708,0.031059048,-0.060983895,-0.017143888,-0.072804747,-0.209375319,0.198367736,0.21420214,-0.204234762,0.021473996,-0.021803511,0.046707731,-0.027388313,-0.190251019,0.138955992,-0.110381329,0.108070923,-0.067281837,0.017848829,-0.010438647,-0.183778367,0.239812585,0.301210264,-0.64646455,-0.033865213,-0.259293787,-0.051708177,-0.29754138,0.037235751,0.053581676,-0.076671343,0.046439125,1.399984838,-1.01765717,-0.034405952,0.021914528,
0.127439732,1.972026025,2.465510404,0.009455516,-0.062592691,0.039226188,-0.056400932,-0.007916953,-0.148625077,-0.179430284,0.184940497,0.177853841,-0.156919524,0.052753253,-0.038966096,0.050859359,-0.01576583,0.173565997,0.144858251,-0.097187754,0.12628952,-0.070208314,0.021098297,-0.016598092,-0.158402354,0.183084952,0.284003306,-0.63198013,-0.114373927,-0.242434483,-0.043737911,-0.290995426,0.038342431,0.067008186,-0.069089212,0.045123694,1.580110753,-0.459343605,-0.037051099,-0.010582355,
0.087058776,2.08635594,2.819993793,0.015622187,-0.051924714,0.054549599,-0.052532248,0.017243638,-0.196153606,-0.189178998,0.153325916,0.117564647,-0.058500394,0.097849387,-0.055798168,0.059473982,-0.011876221,0.280341513,0.135147665,-0.085089826,0.148129047,-0.058177782,0.021388836,-0.02631398,-0.140756933,0.124227797,0.234853267,-0.61358425,-0.111582355,-0.217965534,-0.033006209,-0.2650799,0.042755257,0.073934474,-0.060279626,0.042492274,1.111596617,-0.164842615,-0.027619164,-0.043937274,
0.042998411,1.453717913,2.116027416,0.018187624,-0.037486327,0.066759594,-0.051973124,0.045955434,0.008716086,-0.246895006,0.119052591,0.035692707,0.018779777,0.139223192,-0.068038925,0.067563005,-0.008736024,0.174543578,0.110254119,-0.07499028,0.169567785,-0.046133744,0.021073179,-0.034301129,-0.128255033,0.081808875,0.17227887,-0.589677785,0.193499655,-0.190820031,-0.023179981,-0.21676722,0.048805881,0.074320459,-0.051251042,0.040517632,0.103738067,-0.181384453,-0.012294401,-0.071419768,
0.010545169,0.373545881,0.670843349,0.019773756,-0.029444133,0.068427006,-0.052988973,0.065719252,0.658959004,-0.265654125,0.093305148,-0.055623912,0.045001679,0.158975872,-0.072638094,0.06905891,-0.002023938,0.02689652,0.070801097,-0.067077964,0.186645901,-0.043326238,0.022961593,-0.03459001,-0.116383096,0.066396093,0.121797638,-0.55836328,0.920776429,-0.167075167,-0.017190617,-0.16242028,0.053075037,0.070181851,-0.042729765,0.039646038,-0.904171405,-0.338638218,-0.003516121,-0.088384895,
-0.004891034,-0.591682334,-0.731075843,0.024767519,-0.033521005,0.061836679,-0.052334087,0.073070225,1.623643257,-0.039094722,0.080130697,-0.138518308,0.037915083,0.149004707,-0.069802162,0.061609036,0.005801761,-0.032103369,0.018499827,-0.059788555,0.198091872,-0.047145242,0.030493766,-0.028886346,-0.100017442,0.075834555,0.099344638,-0.518079088,1.831779641,-0.150119303,-0.014649648,-0.119412383,0.053643504,0.062525831,-0.035609544,0.038480233,-1.371010586,-0.446249179,-0.007197661,-0.093990892,
-0.009093337,-1.035481453,-1.434325639,0.034621002,-0.044100578,0.055861772,-0.049586201,0.074776544,2.36661126,0.599926827,0.080018774,-0.199501852,0.032945512,0.116069977,-0.063237136,0.046879783,0.012098918,0.013218053,-0.036432536,-0.050003509,0.205014104,-0.049116911,0.048898238,-0.022551337,-0.07682163,0.096943781,0.103079168,-0.470776146,2.359601409,-0.139734841,-0.01396053,-0.092409391,0.051427491,0.051353596,-0.030484194,0.03630338,-1.178925869,-0.429129305,-0.01459583,-0.091374934,
-0.011804525,-0.955219826,-1.354744809,0.047392037,-0.048372453,0.056667334,-0.046695827,0.080314781,2.304287042,1.506145959,0.088892988,-0.234467749,0.048869816,0.075447775,-0.057513376,0.027991788,0.021019818,0.098577376,-0.077217003,-0.034576958,0.208394565,-0.04465743,0.081705687,-0.017091016,-0.050486932,0.113870218,0.118565989,-0.423540556,2.03492844,-0.133300194,-0.014738784,-0.072965566,0.04867426,0.036071139,-0.026938371,0.034053163,-0.649241682,-0.33166302,-0.010830997,-0.085575415,
-0.017710147,-0.647567562,-0.895194291,0.062260724,-0.039295284,0.060993133,-0.044506593,0.0935774,1.334451998,2.155692622,0.086907386,-0.245858516,0.078550753,0.036971727,-0.054936191,0.007784233,0.040363386,0.156730262,-0.093211141,-0.012003097,0.206685344,-0.035529756,0.123529734,-0.011531021,-0.02843792,0.111368275,0.131024326,-0.3846121,0.94123976,-0.126514596,-0.0159197,-0.047000592,0.046979821,0.015389772,-0.023190079,0.032852273,-0.211817433,-0.23853687,0.008520567,-0.081059515,
-0.023703784,-0.41785201,-0.522392169,0.080267815,-0.022747356,0.060783791,-0.041827124,0.112143405,-0.021738719,2.008324215,0.039373916,-0.239055417,0.105250278,-0.001435686,-0.054116077,-0.011092713,0.0715626,0.166257526,-0.086043917,0.016482793,0.195780779,-0.024866714,0.157579982,-0.005011537,-0.015629724,0.071358256,0.134056636,-0.356682776,-0.302607511,-0.115132856,-0.013721854,-0.003587651,0.046724356,-0.010855987,-0.016012671,0.032927739,-0.083638513,-0.199168439,0.032854402,-0.079941508,
-0.025394447,-0.377920962,-0.437866749,0.099214826,-0.009826893,0.055615413,-0.037335378,0.131084756,-1.040114566,1.018705049,-0.044777091,-0.221222497,0.121103025,-0.045375701,-0.051327105,-0.025419116,0.107060015,0.14893615,-0.06503584,0.047454278,0.171643454,-0.014662584,0.163980466,0.003831992,-0.011522191,-0.009010575,0.12472301,-0.335566468,-1.049861513,-0.098118507,-0.004621352,0.058516212,0.047607366,-0.038644579,-0.00223214,0.034095584,-0.198252479,-0.206649782,0.048390189,-0.080869515,
-0.032510509,-0.452005164,-0.552290371,0.11357435,-0.005593913,0.054996817,-0.031352814,0.144640002,-1.343550342,-0.264467304,-0.024283903,-0.199383799,0.130264494,-0.092244964,-0.044265466,-0.032075034,0.137869897,0.137317723,-0.041948726,0.077120644,0.133421897,-0.009425911,0.134996293,0.015913233,-0.011838666,-0.06547396,0.089620293,-0.315320353,-1.104802126,-0.079247428,0.010193164,0.129624047,0.048831014,-0.060745469,0.017740262,0.036132526,-0.353529689,-0.224027064,0.051573734,-0.079998058,
-0.075008755,-0.511071514,-0.666533675,0.123372357,-0.007541397,0.066944166,-0.026018865,0.148411615,-1.077914716,-1.147464397,0.342437301,-0.17776025,0.139110919,-0.130632279,-0.034389809,-0.030579854,0.159732888,0.147344942,-0.025925016,0.10160977,0.0841928,-0.019380329,0.082913212,0.033635733,-0.010991497,0.057207685,0.0178248,-0.292047957,-0.748629344,-0.064771122,0.024948489,0.194433458,0.048458842,-0.072991132,0.037927443,0.038252281,-0.400302754,-0.221144002,0.049341841,-0.074473793,
-0.152814924,-0.488962732,-0.656555451,0.135245345,-0.011257099,0.089653114,-0.023717938,0.143164512,-0.660325358,-1.319761514,1.154532506,-0.157882238,0.147641012,-0.149964267,-0.025582636,-0.024379269,0.170608534,0.17392074,-0.017266427,0.116828715,0.029328712,-0.053404749,0.030727936,0.059539371,-0.004045053,0.519882465,-0.039579967,-0.263924599,-0.401837655,-0.05890992,0.033968278,0.240724943,0.044123456,-0.077783951,0.050444482,0.03947407,-0.328709001,-0.193786005,0.048906753,-0.065382896,
-0.142100199,-0.405584161,-0.535537783,0.148086914,-0.014624664,0.115714831,-0.024654402,0.133853628,-0.419344506,-0.980661207,2.109086526,-0.14052155,0.151080577,-0.148642936,-0.021362675,-0.01872142,0.164667408,0.20314419,-0.010404175,0.120805919,-0.024736987,-0.091373404,-0.005659737,0.083425602,0.010459978,1.315129556,0.070074038,-0.231603243,-0.295461228,-0.061554339,0.036426549,0.265252366,0.035913191,-0.079717005,0.051694719,0.039680237,-0.223917805,-0.158390009,0.051269763,-0.056635251,
0.188367551,-0.319410316,-0.394434529,0.147215088,-0.01702944,0.141356153,-0.025846044,0.124240907,-0.423735813,-0.557513378,2.579167662,-0.125569358,0.146605556,-0.133349106,-0.02218855,-0.0174793,0.132423942,0.225473062,-0.009841596,0.113797099,-0.071282957,-0.049938756,-0.025474995,0.082621519,0.028620067,2.140756845,0.521019969,-0.19867325,-0.391238228,-0.068557981,0.038235893,0.27302133,0.027506983,-0.080258919,0.043910661,0.039335626,-0.165274888,-0.133149856,0.053681494,-0.050812157,
0.949410788,-0.270200643,-0.306547848,0.122186131,-0.016517565,0.168045898,-0.023380876,0.11368438,-0.546376618,-0.350262855,2.10267135,-0.110611314,0.135970706,-0.113056252,-0.024388974,-0.021742067,0.070797441,0.240402203,-0.035768798,0.09306753,-0.105709202,0.190940302,-0.035790963,0.048734931,0.043051001,2.47918296,1.319026823,-0.169934316,-0.51825979,-0.073049193,0.050466552,0.2708054,0.022636184,-0.078285875,0.032128234,0.039101095,-0.16628934,-0.123578857,0.054625317,-0.046711669,
1.890942652,-0.256116155,-0.28132536,0.083675031,-0.010808355,0.194088455,-0.016043679,0.098531543,-0.628698203,-0.384901724,0.840900034,-0.092431052,0.123202824,-0.09502613,-0.023045026,-0.030227002,-0.004133625,0.252385875,-0.086289852,0.053018165,-0.12788486,0.648501591,-0.041564038,0.003421433,0.04850929,1.938897839,2.15240678,-0.148587434,-0.54887544,-0.0688489,0.082221079,0.259412458,0.021012014,-0.073042844,0.021628858,0.04096447,-0.188482365,-0.121946142,0.055539367,-0.04084669,
2.461763667,-0.249958748,-0.282241415,0.052780957,-0.00101777,0.208587399,-0.006366156,0.076588313,-0.600006076,-0.506666551,-0.507952716,-0.070894875,0.112177543,-0.08416855,-0.016488873,-0.040604127,-0.059966679,0.263338014,-0.073560368,-0.003452911,-0.140899592,1.09676245,-0.043476135,-0.023465245,0.046551032,0.639755193,2.476549886,-0.133712076,-0.474351327,-0.055106087,0.129798872,0.23054419,0.019823261,-0.064484161,0.016500817,0.048579585,-0.18962512,-0.116057997,0.058142815,-0.030807656,
2.199839915,-0.228369857,-0.267446491,0.03694072,0.008546748,0.197252579,0.001659555,0.05078013,-0.491362461,-0.562146287,-1.27394032,-0.049631009,0.1054395,-0.081285555,-0.007625625,-0.05049184,-0.074134378,0.269172631,0.157442287,-0.058168835,-0.147323885,1.162558045,-0.040203484,-0.023693792,0.043746367,-0.77595314,1.895405695,-0.120469453,-0.365224688,-0.037436458,0.17554419,0.171605916,0.018493956,-0.052485561,0.017774476,0.063635905,-0.157214462,-0.098561917,0.061139594,-0.017129487,
1.13701867,-0.187116972,-0.219554189,0.02629532,0.013962968,0.154014558,0.00576004,0.027768932,-0.376441406,-0.509609178,-1.288455167,-0.032426633,0.102331566,-0.074600348,-0.001250368,-0.057023433,-0.055213751,0.263558395,0.64477828,-0.088844263,-0.147752556,0.671046944,-0.030794793,-0.012283885,0.045531236,-1.609126279,0.570306614,-0.104904044,-0.290074622,-0.023483881,0.203093662,0.076466854,0.018450015,-0.037655021,0.02241708,0.081033056,-0.110200939,-0.071472415,0.061451157,-0.002502327,
-0.170241472,-0.138015351,-0.154488533,0.012078417,0.014265182,0.08710121,0.006642706,0.011990186,-0.309514197,-0.405453667,-0.874234228,-0.020444602,0.098124825,-0.024349748,-0.000545089,-0.056818356,-0.029714755,0.243823216,1.126060311,-0.086730033,-0.143096656,-0.125288883,-0.017501399,-0.006557252,0.052857743,-1.606121861,-0.803898182,-0.088263083,-0.267801768,-0.017746624,0.21037923,-0.046045989,0.018627605,-0.020550489,0.025483625,0.091385854,-0.077143424,-0.043674584,0.057831309,0.009865663,
-1.059532728,-0.098707635,-0.105059891,-0.002521842,0.012595821,0.015715839,0.006735601,0.001320131,-0.299932047,-0.323712341,-0.481392111,-0.012702069,0.087908941,0.13922839,-0.005495869,-0.048701456,-0.013986478,0.211817443,1.172398749,-0.062289686,-0.136699592,-0.736166738,-0.005739681,-0.010434124,0.063968344,-1.044161998,-1.52192698,-0.074377385,-0.274178665,-0.020317584,0.203539577,-0.173447848,0.016155208,0.008319554,0.024359261,0.090360562,-0.0702574,-0.022941184,0.051765448,0.017641877,
-1.248329958,-0.082774886,-0.089642316,-0.010969934,0.014837295,-0.039248078,0.008441867,-0.009996529,-0.320279566,-0.291950656,-0.350189294,-0.007291975,0.072038391,0.450879942,-0.012795682,-0.036152708,-0.007371466,0.169389755,0.614632998,-0.035453774,-0.13264313,-0.85149544,0.001695372,-0.016084303,0.077119245,-0.420355852,-1.389580541,-0.063829926,-0.275097714,-0.027339104,0.184605868,-0.278968251,0.011550514,0.086856652,0.020649714,0.082243201,-0.077123244,-0.009810365,0.046971313,0.020805488,
-0.946490658,-0.091830558,-0.097125252,-0.015960829,0.024302092,-0.065649941,0.012827075,-0.024144459,-0.332470592,-0.285539419,-0.43705691,-0.00202766,0.055153975,0.778720539,-0.017296635,-0.025059522,-0.003503867,0.115071126,-0.218843916,-0.020535358,-0.131757212,-0.553247371,0.007879765,-0.013577814,0.090914079,-0.082516509,-0.769801659,-0.053638008,-0.252146341,-0.03173001,0.151183989,-0.342774722,0.008505341,0.276407804,0.017679974,0.07348523,-0.076095347,0.000634208,0.04915648,0.021713646,
-0.572227182,-0.113489201,-0.103520594,-0.038409926,0.037515842,-0.064237226,0.018642019,-0.037169607,-0.314053445,-0.267695858,-0.563319158,0.004288452,0.039485476,0.816938362,-0.015863939,-0.018939759,0.001895096,0.04642924,-0.772672046,-0.018161415,-0.13069157,-0.164640387,0.010702208,0.001726652,0.104339016,-0.072578484,-0.201062164,-0.04176966,-0.207065959,-0.026746582,0.104977629,-0.36052619,0.008958175,0.589466539,0.017226728,0.065614985,-0.057679349,0.01206122,0.062938803,0.023051824,
-0.402685649,-0.129716045,-0.097153018,-0.114530092,0.048486626,-0.043230414,0.023180862,-0.043635965,-0.26767822,-0.229233521,-0.598273902,0.010929429,0.023376538,0.364836884,-0.010188192,-0.016930958,0.00846425,-0.034954741,-0.754164043,-0.019028122,-0.126310933,0.045259131,-0.00929417,0.025734127,0.117305787,-0.217901729,0.009359901,-0.029259973,-0.151885165,-0.011209404,0.05599458,-0.344847765,0.011591038,0.889492316,0.019553675,0.055085795,-0.029638562,0.022970908,0.087203832,0.026143246,
-0.44597134,-0.131755176,-0.085113715,-0.241611964,0.057663211,-0.009735497,0.0247804,-0.041892424,-0.210843022,-0.191828358,-0.532704321,0.016729539,0.008013185,-0.379100752,-0.004861515,-0.015546681,0.007300682,-0.120926076,-0.328863886,-0.014321028,-0.119990012,0.024507402,-0.061385903,0.04688863,0.129845259,-0.326337341,-0.094964226,-0.018290865,-0.098394892,0.008868756,0.017036353,-0.31737022,0.013931542,0.915665244,0.024832002,0.038463529,-0.003566002,0.029381721,0.116098648,0.031031101,
-0.55163896,-0.126775678,-0.079914829,-0.28235806,0.072651098,0.048865837,0.023906659,-0.034873674,-0.158971741,-0.181256126,-0.43418242,0.021866739,-0.001680684,-0.935035545,-0.002964364,-0.011516498,-0.015905891,-0.198207182,0.107383924,-0.005627278,-0.115845959,-0.108430762,-0.082231866,0.049976566,0.143038138,-0.317723386,-0.282297885,-0.009160684,-0.053073858,0.024682507,-0.005198945,-0.295778136,0.014216476,0.507634289,0.03207493,0.016177084,0.018140599,0.029802765,0.144226067,0.036809846,
-0.587016991,-0.125902709,-0.083585998,0.021901229,0.099929815,0.185113664,0.022075273,-0.02781793,-0.115992929,-0.202044611,-0.366093305,0.026773194,-0.006944424,-0.980912133,-0.00365036,-0.003686558,-0.051539008,-0.253551015,0.280381467,-0.008710465,-0.115173873,-0.210618294,0.065332288,0.024614584,0.16211144,-0.227618994,-0.362868962,0.001549029,-0.015509101,0.030673905,-0.012782768,-0.285646364,0.012442354,-0.173919048,0.038019669,-0.00832197,0.039682878,0.025915503,0.165773142,0.041945507,
-0.523821851,-0.126908683,-0.087141555,0.811656474,0.138446619,0.440903652,0.021058371,-0.024610882,-0.077567277,-0.231806387,-0.344045924,0.030280173,-0.016181414,-0.609340553,-0.003161568,0.005964992,-0.023025107,-0.280824549,0.190951963,-0.033960185,-0.114522405,-0.217523988,0.45482403,-0.003442879,0.194029792,-0.132132653,-0.300106687,0.018619312,0.020214962,0.027035303,-0.012263443,-0.282254052,0.010421058,-0.727996839,0.039973458,-0.030612273,0.06153731,0.019965245,0.170301624,0.045216451,
-0.412658319,-0.11578754,-0.082958021,1.831639511,0.178406759,0.720480997,0.022930865,-0.024352005,-0.041456981,-0.23660762,-0.344379967,0.03087675,-0.030538329,-0.172506697,0.002681988,0.012918448,0.187607262,-0.284812931,0.015614592,-0.033144397,-0.109946558,-0.150904189,0.919811992,0.066208723,0.239732254,-0.078916894,-0.17306234,0.041762487,0.060759832,0.019538067,-0.009363371,-0.277481932,0.009772433,-0.857618686,0.039305345,-0.046317418,0.078570549,0.0133375,0.148695813,0.045725755,
-0.315262782,-0.086762977,-0.06860947,2.472659713,0.204862101,0.775172325,0.028914004,-0.022470833,-0.012348729,-0.197979654,-0.336675543,0.029774714,-0.038280839,0.045919124,0.016591639,0.013763537,0.589438856,-0.27715356,-0.081692988,0.115997479,-0.101680839,-0.069624442,1.089817266,0.360339862,0.291873661,-0.068785693,-0.075997781,0.063522216,0.108259645,0.017420029,-0.005951495,-0.265194108,0.009714189,-0.606025004,0.040189815,-0.052430082,0.087024384,0.006418539,0.104637971,0.042339832,
-0.260295157,-0.052807127,-0.042696671,2.20985787,0.206473743,0.430747796,0.037691255,-0.016564516,0.005256902,-0.126319281,-0.3071503,0.030960321,-0.02880014,0.00862852,0.039062663,0.009751463,0.954062963,-0.267594052,-0.057017455,0.477896908,-0.09374835,-0.019149984,0.719620215,0.848036379,0.341166858,-0.075849967,-0.047594891,0.07619594,0.158553998,0.027752575,0.000156683,-0.243440081,0.008628602,-0.258731894,0.045237291,-0.048960991,0.087797294,-0.001255688,0.05335027,0.035506126,
-0.240381169,-0.032381183,-0.010268026,1.074896122,0.181725303,-0.171861114,0.045951184,-0.009758538,0.016065859,-0.047465254,-0.260728132,0.037468971,-0.005178987,-0.136360494,0.06860284,0.005130877,0.949318512,-0.25893268,0.032099019,0.875747528,-0.089791662,-0.009326186,-0.018757578,1.214705739,0.381555358,-0.075053768,-0.064002115,0.078754118,0.203749217,0.049634773,0.012176552,-0.214657632,0.007125968,-0.069286258,0.053509484,-0.039138803,0.081447193,-0.009966417,0.008443447,0.029349713,
-0.232277891,-0.030645967,0.0134912,-0.31043395,0.136808844,-0.653898994,0.050547078,-0.00740991,0.031050071,0.01660336,-0.210687819,0.048486314,0.020343206,-0.228239301,0.10143695,0.002148147,0.476396312,-0.248811707,0.108312602,0.955728098,-0.089727912,-0.02172552,-0.655530184,1.074226878,0.408587973,-0.057959616,-0.077530243,0.076416392,0.235637944,0.074214287,0.026778364,-0.184720423,0.006402129,-0.090316004,0.061996796,-0.027902424,0.065848152,-0.01860697,-0.025114348,0.028837804,
-0.216380479,-0.036592678,0.015987011,-1.214830432,0.081641853,-0.73748849,0.050167054,-0.01165022,0.055378736,0.054872291,-0.167550285,0.060356569,0.037974016,-0.211953435,0.130830174,-0.000896066,-0.17856889,-0.23441911,0.136334915,0.536798657,-0.090697799,-0.031394314,-0.839476336,0.388741526,0.417779629,-0.031002762,-0.060571195,0.076882383,0.247595582,0.091383631,0.023449161,-0.160125716,0.005255654,-0.210823739,0.067652867,-0.019697758,0.042403954,-0.025495002,-0.047124482,0.034317082,
-0.186110081,-0.036646026,-7.78E-05,-1.341600149,0.028855631,-0.469542671,0.046043607,-0.019984064,0.082907619,0.067575439,-0.132435381,0.069552163,0.045308126,-0.134808708,0.149247759,-0.007032339,-0.587727245,-0.215463242,0.129599349,-0.153422693,-0.090863457,-0.024694639,-0.60175696,-0.417617962,0.408415125,-0.002173362,-0.019434738,0.08654345,0.235406741,0.097221467,-0.025891407,-0.144378551,0.002771912,-0.297162471,0.068764695,-0.01594614,0.018643462,-0.03049718,-0.058318552,0.040981498,
-0.147697541,-0.028142417,-0.018897909,-0.943994052,-0.008512565,-0.124313498,0.041881315,-0.028381816,0.101964375,0.064530936,-0.09752769,0.074621802,0.044726763,-0.069035464,0.151822611,-0.017108613,-0.555553991,-0.193691939,0.120053492,-0.661423531,-0.090495163,-0.002653123,-0.247030425,-0.832332198,0.388445461,0.028957244,0.025425122,0.105795353,0.197164005,0.096133336,-0.094738248,-0.136506715,0.001285912,-0.294428674,0.065724581,-0.01374744,-7.85E-05,-0.035121613,-0.061322353,0.043868022,
-0.112690147,-0.017866192,-0.024641069,-0.494743303,-0.022792558,0.059703572,0.043569895,-0.034318762,0.103153169,0.059211024,-0.052974095,0.076486317,0.0386056,-0.047776049,0.136066081,-0.028719,-0.236061531,-0.171413315,0.127155798,-0.70580461,-0.089393721,0.026290156,-0.05471621,-0.697009391,0.371555964,0.06845883,0.062571211,0.126930738,0.133298427,0.098156969,-0.03409703,-0.131950073,0.00256541,-0.232373511,0.060365718,-0.008271492,-0.017239386,-0.040664669,-0.060036145,0.042033451,
-0.089446924,-0.011366368,-0.014628907,-0.295061755,-0.015534569,0.038462507,0.057454301,-0.037291274,0.084012461,0.059379273,0.005260991,0.077647228,0.027373281,-0.057574457,0.100605206,-0.03813877,0.067816746,-0.152014185,0.149334866,-0.374585583,-0.085959773,0.053450059,-0.089345646,-0.270944025,0.364883941,0.118341461,0.093505788,0.139950755,0.048076131,0.112984022,0.364291751,-0.125002091,0.00419023,-0.170704105,0.054626695,0.002669715,-0.039853275,-0.046753725,-0.046962303,0.038850621,
-0.079971412,-0.008750915,0.000276258,-0.345995958,0.005569225,-0.078352142,0.08516025,-0.038289157,0.050901633,0.061172726,0.071770843,0.080310856,0.012234535,-0.068008261,0.048767601,-0.042822989,0.169980583,-0.139386588,0.176689794,0.020247381,-0.080103552,0.073198461,-0.233093375,0.066947905,0.362730485,0.17306832,0.126492662,0.141410955,-0.048813797,0.14237004,1.138651258,-0.11209968,0.003275201,-0.145231788,0.050284303,0.018415545,-0.070327675,-0.051095361,0.022216436,0.039937377,
-0.082018845,-0.008907087,0.00943599,-0.478441324,0.038121166,-0.162631527,0.119819817,-0.039143901,0.015897513,0.054311411,0.134258716,0.084424529,-0.001390334,-0.059754538,-0.007219151,-0.042015793,0.093359771,-0.133414902,0.205090825,0.225375099,-0.074918246,0.083895489,-0.336824994,0.130193976,0.357002189,0.225536067,0.170447883,0.135979227,-0.143413987,0.17868389,1.967938293,-0.093789,0.00126961,-0.151216542,0.048865828,0.048482966,-0.105037913,-0.051132738,0.236405282,0.04957543,
-0.092260262,-0.012119372,0.01344926,-0.539873913,0.103891862,-0.161687592,0.150898701,-0.04116752,-0.010196128,0.035079427,0.180608621,0.088241858,-0.006001222,-0.03331781,-0.050333478,-0.036403859,-0.02605372,-0.127842426,0.236646085,0.200838191,-0.073106559,0.088028795,-0.336249315,-0.008793682,0.347727722,0.272432372,0.227068039,0.131670315,-0.222341596,0.210466912,2.296965033,-0.074360567,0.002283498,-0.162360028,0.050538187,0.136140858,-0.133652387,-0.046303444,0.670308161,0.067110598,
-0.106988549,-0.015689473,0.018305619,-0.485218215,0.2469666,-0.103170702,0.172086417,-0.043730805,-0.022039927,0.012675072,0.204982955,0.090914511,0.000867002,-0.001554312,-0.070201495,-0.027762148,-0.078292177,-0.115517411,0.271900776,0.070703095,-0.073249633,0.092113341,-0.266118393,-0.166514596,0.337160282,0.312147509,0.287783572,0.135446788,-0.277901541,0.225042846,1.777978158,-0.059453133,0.008090396,-0.159807098,0.053565551,0.351220089,-0.1395414,-0.037975484,1.248782116,0.086758511,
-0.120752794,-0.011186112,0.022965984,-0.36062229,0.463554932,-0.04437662,0.181022913,-0.044957999,-0.01929316,0.000401185,0.207953996,0.0929794,0.014533913,0.023726496,-0.070163703,-0.017446176,-0.042555201,-0.093791543,0.306324153,-0.022811268,-0.072107014,0.103559053,-0.199691684,-0.218525835,0.319807529,0.339862482,0.341062296,0.14936364,-0.309376112,0.210409031,0.627885396,-0.052597419,0.017290577,-0.14481156,0.055747666,0.701640491,-0.113220939,-0.027744553,1.650483895,0.10109617,
-0.126465354,0.006320107,0.022341239,-0.239483768,0.618917742,-0.021186475,0.174346309,-0.044080326,-0.005701558,0.001326866,0.19093343,0.094424559,0.029700405,0.040175915,-0.062171191,-0.004779672,0.034496587,-0.063636896,0.332531148,-0.022650983,-0.069000894,0.125191425,-0.17961596,-0.161542846,0.286453503,0.346904827,0.380360412,0.168432032,-0.32096453,0.165383491,-0.51241182,-0.053374911,0.028448253,-0.129048752,0.056084906,1.021587825,-0.069124974,-0.016518822,1.465787758,0.104712997,
-0.118693431,0.028233218,0.021278165,-0.164906143,0.517322714,-0.030246896,0.148351532,-0.041632838,0.011191047,0.007435287,0.151576729,0.094604936,0.045021149,0.053512485,-0.056119169,0.012103076,0.094570194,-0.028266816,0.343139961,0.038846338,-0.065255077,0.153514464,-0.194377739,-0.068948511,0.236394943,0.324977496,0.403991223,0.184108708,-0.318485871,0.107042868,-1.097970301,-0.057897833,0.040886056,-0.11945267,0.054612737,1.019061448,-0.039181571,-0.00456476,0.591998947,0.095884326,
